FL_DATE,ABE,ABI,ABQ,ABR,ABY,ACK,ACT,ACV,ACY,ADK,ADQ,AEX,AGS,AKN,ALB,ALO,AMA,ANC,APN,ASE,ATL,ATW,AUS,AVL,AVP,AZO,BDL,BET,BFF,BFL,BGM,BGR,BHM,BIL,BIS,BJI,BLI,BMI,BNA,BOI,BOS,BPT,BQK,BQN,BRD,BRO,BRW,BTM,BTR,BTV,BUF,BUR,BWI,BZN,CAE,CAK,CDC,CDV,CHA,CHO,CHS,CID,CIU,CKB,CLE,CLL,CLT,CMH,CMI,CMX,COD,COS,COU,CPR,CRP,CRW,CSG,CVG,CWA,DAB,DAL,DAY,DBQ,DCA,DEN,DFW,DHN,DLG,DLH,DRO,DSM,DTW,DVL,EAU,ECP,EFD,EGE,EKO,ELM,ELP,ENV,ERI,ESC,EUG,EVV,EWN,EWR,EYW,FAI,FAR,FAT,FAY,FCA,FLG,FLL,FNT,FSD,FSM,FWA,GCC,GCK,GEG,GFK,GGG,GJT,GNV,GPT,GRB,GRI,GRK,GRR,GSO,GSP,GST,GTF,GTR,GUC,GUM,HDN,HIB,HLN,HNL,HOB,HOU,HPN,HRL,HSV,HYA,HYS,IAD,IAG,IAH,ICT,IDA,IFP,ILM,IMT,IND,INL,ISN,ISP,ITH,ITO,JAC,JAN,JAX,JFK,JLN,JMS,JNU,KOA,KTN,LAN,LAR,LAS,LAW,LAX,LBB,LBE,LCH,LEX,LFT,LGA,LGB,LIH,LIT,LNK,LRD,LSE,LWS,MAF,MBS,MCI,MCO,MDT,MDW,MEI,MEM,MFE,MFR,MGM,MHK,MHT,MIA,MKE,MKG,MLB,MLI,MLU,MMH,MOB,MOT,MQT,MRY,MSN,MSO,MSP,MSY,MTJ,MVY,MYR,OAJ,OAK,OGG,OKC,OMA,OME,ONT,ORD,ORF,ORH,OTH,OTZ,PAH,PBG,PBI,PDX,PGD,PHF,PHL,PHX,PIA,PIB,PIH,PIT,PLN,PNS,PPG,PSC,PSE,PSG,PSP,PVD,PWM,RAP,RDD,RDM,RDU,RHI,RIC,RKS,RNO,ROA,ROC,ROW,RST,RSW,SAF,SAN,SAT,SAV,SBA,SBN,SBP,SCC,SCE,SDF,SEA,SFO,SGF,SGU,SHV,SIT,SJC,SJT,SJU,SLC,SMF,SMX,SNA,SPI,SPN,SPS,SRQ,STL,STS,STT,STX,SUN,SUX,SWF,SYR,TKI,TLH,TOL,TPA,TRI,TTN,TUL,TUS,TVC,TWF,TXK,TYR,TYS,UST,VLD,VPS,WRG,WYS,XNA,YAK,YUM
2015-12-01,0.0,0.0,0.0,0.0,0.0,,0.0,0.0,0.0,,0.0,0.0,0.0,,0.041666666666666664,0.0,0.0,0.0,0.0,0.0,0.008395522388059701,0.0,0.0,0.5714285714285714,0.0,0.0,0.0,0.0,,0.0,0.0,0.0,0.0,0.0,0.0,0.5,0.0,0.0,0.0,0.0,0.00906344410876133,0.0,0.0,0.0,0.0,0.0,0.0,0.0,0.0,0.09090909090909091,0.03636363636363636,0.0,0.0,0.0,0.0625,0.10526315789473684,0.0,0.0,0.06666666666666667,0.0,0.025,0.0,0.0,,0.00980392156862745,0.0,0.0,0.0,0.0,0.5,0.0,0.0,0.0,0.0,0.0,0.0,0.0,0.017857142857142856,0.0,0.0,0.0,0.07692307692307693,0.0,0.017167381974248927,0.0017825311942959,0.0030120481927710845,0.0,,0.16666666666666666,0.0,0.0,0.0,0.0,0.0,0.0,,0.0,0.0,0.0,0.0,,0.0,0.0,0.0,0.0,0.0,0.06191950464396285,0.0,0.0,0.0,0.0,0.0,0.0,0.0,0.0044444444444444444,0.0,0.0,0.0,0.0,0.0,0.0,0.0,0.0,0.0,0.0,0.0,0.0,0.0,0.0,0.0,0.03225806451612903,0.05555555555555555,0.0,,0.0,0.0,,0.0,,0.0,0.0,0.00847457627118644,0.0,0.0,0.0,0.0,0.0,,0.0,0.0,0.0,0.002564102564102564,0.0,0.0,,0.0,0.0,0.0,0.0,0.0,0.0,,0.058823529411764705,0.0,0.0,0.0,0.0038022813688212928,0.0,0.0,0.09090909090909091,0.0,0.0,0.0,0.0,0.002531645569620253,0.0,0.0036429872495446266,0.0,0.0,0.0,0.0,0.0,0.014035087719298246,0.0,0.0,0.0,0.0,0.14285714285714285,0.0,0.0,0.0,0.0,0.0,0.003048780487804878,0.0,0.0,0.0,0.0,0.0,0.0,0.0,0.0,0.0,0.0,0.010638297872340425,0.0,0.0,0.0,0.0,,0.0,0.0,0.0,0.0,0.038461538461538464,0.0,0.0058309037900874635,0.0,0.0,,0.0,0.0,0.0,0.017857142857142856,0.02040816326530612,0.0,0.0,0.0,0.0045871559633027525,0.07142857142857142,0.0,,0.0,0.0,0.0,0.0,0.0,,0.0,0.005154639175257732,0.0,0.0,0.0,0.0,0.0,0.0,0.0,,0.1,0.0,0.0,0.034482758620689655,0.027777777777777776,0.0,0.0,0.0,0.0,0.010309278350515464,0.0,0.0,0.0,0.0,0.14285714285714285,0.0,0.0,0.0,0.011904761904761904,0.0,0.0,0.0,0.0,0.0,0.0,0.0,0.0,0.0,0.034482758620689655,0.003048780487804878,0.006607929515418502,0.0,0.0,0.0,0.0,0.0,0.0,0.0,0.0,0.009174311926605505,0.0,0.0,0.0,,0.3333333333333333,0.0,0.013422818791946308,,0.0,0.0,0.0,0.0,0.0,0.0,,0.0,0.0,0.0,0.0,0.0,0.024390243902439025,0.0,0.0,0.0,0.0,0.0,0.0,,0.0,0.0,0.0,,0.0,0.0,0.0
2015-12-02,0.0,0.0,0.0,0.0,0.0,,0.0,0.0,0.0,,0.0,0.0,0.0,,0.037037037037037035,0.0,0.0,0.0,0.0,0.0,0.001876172607879925,0.0,0.0,0.3333333333333333,0.0,0.0,0.017543859649122806,0.0,,0.0,0.0,0.0,0.0,0.0,0.0,0.0,0.0,0.0,0.013333333333333334,0.0,0.0121580547112462,0.0,0.3333333333333333,0.0,0.0,0.0,0.0,0.0,0.0,0.07142857142857142,0.0,0.016666666666666666,0.014760147601476014,0.0,0.0,0.0,0.0,0.0,0.0,0.0,0.02702702702702703,0.0,0.0,,0.020618556701030927,0.0,0.00625,0.0,0.0,0.5,0.0,0.0,0.0,0.0,0.0,0.0,0.0,0.017543859649122806,0.0,0.0,0.0,0.037037037037037035,0.0,0.04291845493562232,0.0,0.0014903129657228018,0.0,,0.0,0.0,0.0,0.0028089887640449437,0.0,0.0,0.0,,0.0,0.0,0.0,0.030303030303030304,,0.5,0.0,0.0,0.0,0.5,0.069164265129683,0.0,0.0,0.0,0.0,0.0,0.0,0.0,0.004424778761061947,0.0,0.0,0.0,0.0,0.0,0.0,0.0,0.0,0.0,0.0,0.0,0.0,0.0,0.0,0.0,0.034482758620689655,0.05555555555555555,0.043478260869565216,,0.0,0.0,,0.0,,0.0,0.0,0.008333333333333333,0.0,0.006097560975609756,0.09523809523809523,0.0,0.0,,0.0,0.02127659574468085,0.0,0.0,0.0,0.0,,0.0,0.0,0.011627906976744186,0.5,0.0,0.07692307692307693,,0.0,0.0,0.0,0.0,0.023346303501945526,0.0,0.0,0.0,0.0,0.0,0.0,0.0,0.012853470437017995,0.0,0.005484460694698354,0.0,0.0,0.0,0.0,0.0,0.0070921985815602835,0.0,0.0,0.0,0.0,0.0,0.0,0.0,0.0,0.0,0.01680672268907563,0.01238390092879257,0.0,0.0502092050209205,0.0,0.022222222222222223,0.0,0.0,0.0,0.0,0.1,0.0049261083743842365,0.0,0.0,0.0,0.0,0.1111111111111111,,0.0,0.0,0.0,0.0,0.07407407407407407,0.0,0.0029069767441860465,0.01694915254237288,0.0,,0.0,0.3333333333333333,0.0,0.0,0.0,0.019230769230769232,0.0,0.0,0.0011655011655011655,0.034482758620689655,0.0,,0.0,0.0,0.0,0.029411764705882353,0.006756756756756757,,0.0,0.020100502512562814,0.0,0.0,0.0,0.0,0.013333333333333334,0.0,0.0,,0.0,0.0,0.0,0.0,0.07894736842105263,0.07692307692307693,0.0,0.0,0.14285714285714285,0.01,0.0,0.0,0.0,0.0,0.125,0.08695652173913043,0.0,0.0,0.0,0.0,0.01020408163265306,0.023529411764705882,0.0,0.0,0.0,0.0,0.0,0.0,0.034482758620689655,0.0,0.0,0.0,0.0,0.0,0.0,0.008695652173913044,0.0,0.0,0.0035842293906810036,0.0,0.0,0.008264462809917356,0.0,,0.0,0.0,0.006711409395973154,,0.0,0.0,0.0,0.0,0.0,0.043478260869565216,,0.0,0.0,0.0,0.0,0.0,0.0,0.0,0.0,0.0,0.0,0.0,0.0,0.0,0.0,0.0,0.0,,0.0,0.0,0.0
2015-12-03,0.0,0.0,0.0,0.0,0.0,,0.0,0.5,0.0,0.0,0.0,0.0,0.0,,0.0,0.0,0.0,0.0,0.0,0.0,0.0027803521779425394,0.0,0.0,0.0,0.0,0.0,0.0,0.0,,0.0,0.0,0.0,0.0,0.0,0.0,0.0,0.0,0.0,0.0,0.0,0.008902077151335312,0.0,0.0,0.0,0.0,0.0,0.0,0.0,0.0,0.0,0.0,0.03278688524590164,0.007326007326007326,0.0,0.0,0.0,0.0,0.0,0.0,0.14285714285714285,0.0,0.0,0.0,,0.009708737864077669,0.0,0.0,0.0,0.0,0.0,0.0,0.0,0.0,0.0,0.0,0.0,0.0,0.0,0.0,0.0,0.0,0.0,0.0,0.012605042016806723,0.0,0.0,0.0,,0.0,0.0,0.0,0.005555555555555556,0.0,0.0,0.0,,0.0,0.0,0.0,0.0,,0.0,0.0,0.4,0.0,0.0,0.005571030640668524,0.125,0.0,0.0,0.05555555555555555,0.0,0.0,0.0,0.0,0.0,0.0,0.0,0.0,0.0,0.0,0.034482758620689655,0.0,0.0,0.0,0.0,0.0,0.0,0.0,0.0,0.0,0.0,0.0,,0.0,0.0,,0.0,,0.0,0.0,0.0,0.0,0.0,0.045454545454545456,0.0,0.0,,0.0,0.0,0.0,0.0,0.0,0.0,,0.0,0.0,0.0,0.0,0.0,0.0,,0.0,0.0,0.0,0.0,0.0,0.0,0.0,0.6363636363636364,0.0,0.16666666666666666,0.0,0.0,0.004987531172069825,0.0,0.012455516014234875,0.0,0.0,0.0,0.0,0.0,0.01048951048951049,0.04,0.0,0.0,0.0,0.0,0.0,0.0,0.0,0.0,0.0,0.0,0.0,0.0,0.0,0.022727272727272728,0.0,0.125,0.0,0.0,0.0,0.009389671361502348,0.0,0.0,0.0,0.0,0.0,,0.0,0.0,0.0,0.125,0.0,0.0,0.0028653295128939827,0.0,,,0.0,0.0,0.014814814814814815,0.01694915254237288,0.0,0.0,0.0,0.03773584905660377,0.0,0.0,0.0,1.0,0.0,0.0,0.0,0.0,0.0,,0.0,0.0,0.002320185614849188,0.0,0.0,0.0,0.0,0.0,0.0,,0.0,0.0,0.0,0.07407407407407407,0.0,0.0,0.0,0.0,0.0,0.009900990099009901,0.0,0.0,0.0,0.05714285714285714,0.0,0.0,0.0,0.0,0.0,0.0,0.00966183574879227,0.0,0.0,0.11764705882352941,0.0,0.14285714285714285,0.0,0.0,0.0,0.012084592145015106,0.08189655172413793,0.0,0.0,0.0,0.0,0.0,0.0,0.0,0.013745704467353952,0.017857142857142856,0.0,0.031496062992125984,0.0,,0.0,0.0,0.006756756756756757,,0.0,0.0,0.0,0.0,0.0,0.0,,0.0,0.0,0.00510204081632653,0.0,0.0,0.0,0.022727272727272728,0.0,0.0,0.0,0.0,0.0,,0.0,0.0,0.0,,0.0,0.0,0.0
2015-12-04,0.0,0.0,0.0,0.0,0.0,,0.0,0.0,0.0,,0.0,0.0,0.0,,0.0,0.0,0.0,0.0,0.0,0.0,0.000931098696461825,0.0,0.0,0.0,0.0,0.0,0.017543859649122806,0.0,,0.0,0.0,0.0,0.0,0.0,0.0,0.0,0.0,0.0,0.0,0.02564102564102564,0.008875739644970414,0.0,0.0,0.0,0.0,0.0,0.0,0.0,0.0,0.0,0.0,0.0,0.007547169811320755,0.0,0.0,0.0,0.0,0.0,0.0,0.0,0.0,0.0,0.0,,0.009708737864077669,0.0,0.0,0.013513513513513514,0.14285714285714285,0.0,0.0,0.0,0.0,0.0,0.0,0.0,0.0,0.0,0.0,0.0,0.005025125628140704,0.0,0.0,0.0,0.0017064846416382253,0.00291970802919708,0.0,,0.14285714285714285,0.0,0.0,0.002785515320334262,0.0,0.0,0.0,,0.0,0.0,0.0,0.0,,0.0,0.0,0.0,0.0,0.0,0.0028169014084507044,0.0,0.0,0.0,0.0,0.0,0.0,0.0,0.0,0.0,0.0,0.0,0.0,0.0,0.0,0.0,0.0,0.5,0.0,0.0,0.0,0.0,0.0,0.0,0.0,0.0,0.0,,0.0,0.0,,0.0,,0.0,0.0,0.0,0.0,0.0,0.045454545454545456,0.0,0.0,,0.0,0.0,0.0,0.0,0.0,0.0,,0.0,0.0,0.0,0.0,0.0,0.0,,0.0,0.0,0.0,0.0,0.0,0.0,0.0,0.09090909090909091,0.0,0.0,0.0,0.0,0.004987531172069825,0.0,0.0,0.06666666666666667,0.0,0.0,0.0,0.0,0.0,0.04,0.0,0.0,0.0,0.0,0.0,0.0,0.0,0.0,0.0,0.0,0.0,0.0,0.0,0.0,0.0,0.0,0.0,0.0,0.0,0.004739336492890996,0.01098901098901099,0.0,0.0,0.0,0.0,,0.0,0.0,0.0,0.0,0.0,0.0,0.0,0.0,,,0.0,0.0,0.007692307692307693,0.0,0.0,0.0,0.0,0.0,0.0056625141562853904,0.0,0.0,0.0,0.0,0.0,0.0,0.014492753623188406,0.006756756756756757,,0.0,0.009950248756218905,0.0,0.0,0.0,0.0,0.0,0.0,0.0,0.0,0.0,0.0,0.0,0.037037037037037035,0.0,0.0,0.0,0.0,0.0,0.00980392156862745,0.0,0.0,0.0,0.0,0.0,0.0,0.0,0.0,0.0,0.0,0.0,0.0,0.0,0.058823529411764705,0.0,0.0,0.0,0.0,0.0,0.0,0.004338394793926247,0.0,0.0,0.0,0.0,0.00847457627118644,0.0,0.0,0.003436426116838488,0.0,0.5,0.0,0.0,,0.0,0.0,0.0,,0.0,0.0,0.5,0.5,0.0,0.0,,0.0,0.0,0.015544041450777202,0.0,0.0,0.0,0.0,0.0,0.0,0.0,0.0,0.0,0.0,0.0,0.0,0.5,,0.0,0.0,0.0
2015-12-05,0.0,0.0,0.0,0.0,0.0,,0.0,0.0,0.0,,0.0,0.0,0.0,,0.05555555555555555,0.0,0.0,0.0,0.0,0.0,0.002642007926023778,0.0,0.009708737864077669,0.0,0.0,0.0,0.023809523809523808,0.0,,0.0,0.0,,0.0,0.0,0.0,0.0,0.0,0.4,0.009433962264150943,0.0,0.0045662100456621,0.0,0.0,0.0,0.0,0.0,0.0,0.0,0.0,0.0,0.022727272727272728,0.0,0.004807692307692308,0.0,0.125,0.0,0.0,0.0,0.0,0.0,0.0,0.0,0.0,,0.014285714285714285,0.0,0.0,0.0,0.6,0.0,0.0,0.0,0.0,0.0,0.0,0.0,0.0,0.15625,0.0,0.0,0.0,0.42857142857142855,0.0,0.012987012987012988,0.00228310502283105,0.0,0.0,,0.0,0.0,0.0,0.008064516129032258,0.0,0.0,0.0,,0.0,0.0,0.0,0.0,,0.0,0.0,0.0,0.1111111111111111,0.0,0.004901960784313725,0.0,0.0,0.0,0.0,0.0,0.0,0.0,0.008620689655172414,0.2,0.0,0.0,0.0,0.0,0.0,0.043478260869565216,0.0,0.0,0.0,0.0,0.0,0.0,0.0,0.0,0.047619047619047616,0.0,0.0,,0.0,0.0,,0.0,,0.0,0.0,0.0,0.0,0.0,0.0,0.0,0.0,,0.0,0.02857142857142857,0.0,0.0,0.05555555555555555,0.0,,0.0,0.0,0.016666666666666666,0.0,0.0,0.0,,0.0,0.0,0.0,0.0,0.0,0.0,0.0,0.0,0.0,0.0,0.0,0.0,0.0027624309392265192,0.0,0.002277904328018223,0.0,0.0,0.0,0.0,0.0,0.0,0.0,0.0,0.05555555555555555,0.0,0.0,0.0,1.0,0.0,0.0,0.022988505747126436,0.005797101449275362,0.0,0.105,0.0,0.0,0.0,0.0,0.0,0.0,0.0,0.0048543689320388345,0.0,0.0,0.0,0.0,0.0,,0.0,0.0,,0.0,0.0,0.0,0.004347826086956522,0.0,0.0,,0.0,0.0,0.0,0.0,0.0,0.06060606060606061,0.0,0.0,0.00676818950930626,0.045454545454545456,0.0,,0.0,0.0,0.0,0.0,0.008547008547008548,,0.0,0.0,0.0029585798816568047,0.0,0.0,0.0,0.018867924528301886,0.5,0.0,,0.0,0.0,0.0,0.0,0.0,0.0,0.0,0.0,0.0,0.0136986301369863,0.0,0.0,0.0,0.0,0.0,0.0,0.0,0.0,0.011235955056179775,0.0,0.0,0.0,0.06666666666666667,0.0,0.0,0.0,0.0,0.0,0.0,0.007168458781362007,0.0,0.0,0.0,0.0,0.0,0.0,0.0,0.0,0.0,0.0,0.0,0.0,0.0,,0.0,0.0,0.009523809523809525,,0.0,0.0,0.0,0.0,0.0,0.0,,0.0,0.0,0.0,0.0,0.0,0.0,0.0,0.0,0.0,0.0,0.0,0.0,0.0,0.0,0.0,0.0,,0.0,0.0,0.0
2015-12-06,0.0,0.0,0.0,0.0,0.0,,0.0,0.0,0.0,0.0,0.0,0.0,0.0,,0.0,0.0,0.0,0.0,0.0,0.0,0.0029615004935834156,0.25,0.008,0.0,0.0,0.0,0.0,0.0,,0.0,0.0,,0.02857142857142857,0.0,0.0,0.0,0.0,0.0,0.0070921985815602835,0.0,0.0035587188612099642,0.0,0.0,0.0,0.0,0.0,0.0,0.0,0.0,0.0,0.0,0.0,0.004,0.0,0.0,0.06666666666666667,0.0,0.0,0.07692307692307693,0.0,0.0,0.0,0.0,,0.010869565217391304,0.0,0.0,0.028985507246376812,0.0,0.0,0.0,0.0,0.0,0.0,0.0,0.0,0.0,0.0,0.0,0.0,0.0,0.15,0.0,0.0045662100456621,0.0,0.0015552099533437014,0.0,,0.16666666666666666,0.0,0.04,0.023809523809523808,0.0,0.0,0.0,,0.0,0.0,0.0,0.0,,0.0,0.0,0.0,0.09090909090909091,0.0,0.0,0.0,0.0,0.0,0.0,0.0,0.0,0.0,0.0,0.0,0.0,0.0,0.0,0.0,0.5,0.0,0.0,0.0,0.0,0.0,0.1111111111111111,0.0,0.0,0.0,0.0,0.0,0.0,,0.25,0.3333333333333333,0.0,0.0,,0.0,0.0,0.00819672131147541,0.0,0.006493506493506494,0.0,0.0,0.0,,0.0,0.0,0.0,0.0,0.0,0.0,,0.0,0.0,0.0,0.0,0.0,0.0,,0.0,0.0,0.0,0.0,0.0,0.0,0.0,0.0,0.0,0.0,0.0,0.0,0.0025188916876574307,0.0,0.0018975332068311196,0.0,0.0,0.0,0.0,0.0,0.004291845493562232,0.0,0.0,0.0,0.0,0.0,0.0,0.0,0.0,0.2,0.0,0.0,0.0,0.0,0.0,0.0,0.0,0.0,0.0,0.0,0.0,0.0,0.0,0.0,0.0,0.0,0.0,,0.0,0.0,0.0,0.125,0.0,0.0,0.009146341463414634,0.0,0.0,,0.0,0.0,0.008,0.016129032258064516,0.0,0.0,0.0,0.02040816326530612,0.0037593984962406013,0.0,0.0,1.0,0.0,0.0,0.0,0.014925373134328358,0.0,,0.0,0.005434782608695652,0.0,0.0,0.0,0.0,0.03076923076923077,0.0,0.0,,0.1,0.0,0.0,0.0,0.0,0.0,0.0,0.0,0.0,0.0,0.3333333333333333,0.0,0.0,0.0,0.0,0.0,0.0,0.0,0.0,0.0,0.015306122448979591,0.0,0.0,0.058823529411764705,0.0,0.0,0.0,0.5,0.0,0.0,0.01160092807424594,0.0,0.0,0.0,0.0,0.009615384615384616,0.0,0.0,0.0035211267605633804,0.0,0.0,0.0,0.0,,0.0,0.0,0.0,,0.0,0.0,0.5,0.0,0.0,0.0,,0.0,0.0,0.0,0.0,0.0,0.0,0.0,0.0,0.0,0.0,0.0,0.0,,0.0,0.0,0.0,,0.0,0.0,0.0
2015-12-07,0.0,0.0,0.018518518518518517,0.0,0.0,,0.0,0.0,0.0,,0.0,0.0,0.0,,0.038461538461538464,0.0,0.0,0.024390243902439025,0.0,0.0,0.0018656716417910447,0.1111111111111111,0.015037593984962405,0.0,0.4,0.2857142857142857,0.017543859649122806,0.0,,0.0,0.0,,0.02702702702702703,0.0,0.0,0.0,0.0,0.1111111111111111,0.02702702702702703,0.0,0.005970149253731343,0.0,0.0,0.0,0.5,0.0,0.0,0.0,0.045454545454545456,0.0,0.0,0.03333333333333333,0.007518796992481203,0.0,0.0,0.0,0.0,0.0,0.0,0.0,0.0,0.05,0.0,,0.009708737864077669,0.0,0.0,0.013333333333333334,0.5714285714285714,0.0,0.0,0.0,0.0,0.0,0.0,0.0,0.0,0.03225806451612903,0.4,0.0,0.009900990099009901,0.0,0.0,0.004219409282700422,0.005110732538330494,0.0,0.0,,0.0,0.0,0.03571428571428571,0.01675977653631285,0.0,0.0,0.0,,0.0,0.0,0.0,0.0,,0.0,0.5,0.0,0.0,0.0,0.008522727272727272,0.0,0.0,0.0,0.0,0.0,0.0,0.0,0.008620689655172414,0.14285714285714285,0.0,0.0,0.0625,0.0,0.0,0.0,0.0,0.0,0.0,0.0,0.0,0.0,0.0,0.0,0.06896551724137931,0.05,0.0,,0.0,0.0,,0.0,,0.0,0.0,0.0,0.0,0.006134969325153374,0.045454545454545456,0.0,0.0,,0.0,0.0,0.0,0.0,0.0,0.0,,0.0,0.5,0.011494252873563218,0.0,0.0,0.0,,0.0,0.0,0.0,0.017241379310344827,0.0,0.0,0.0,0.09090909090909091,0.0,0.0,0.0,0.0,0.002544529262086514,0.0,0.0036036036036036037,0.0,0.0,0.0,0.0,0.0,0.007017543859649123,0.0,0.0,0.03333333333333333,0.0,0.0,0.14285714285714285,0.0,0.0,0.0,0.00847457627118644,0.018018018018018018,0.0,0.20253164556962025,0.0,0.022727272727272728,0.0,0.0,0.0,0.0,0.0,0.004807692307692308,0.03296703296703297,0.0,0.0,0.1,0.0,,0.0,0.16666666666666666,0.0,0.25,0.1111111111111111,0.0,0.011527377521613832,0.00847457627118644,,,0.0,0.0,0.015267175572519083,0.0,0.018867924528301886,0.057692307692307696,0.0,0.0,0.036036036036036036,0.0,0.5,1.0,0.0,0.0,0.0,0.0,0.02040816326530612,,0.0,0.005025125628140704,0.002564102564102564,0.29411764705882354,0.0,0.0,0.0410958904109589,0.0,0.0,0.0,0.0,0.0,0.0,0.0,0.0,0.0,0.0,0.0,0.0,0.010309278350515464,0.0,0.0,0.0,0.0,0.125,0.0,0.0,0.125,0.0,0.0,0.0049261083743842365,0.0,0.0,0.0,0.14285714285714285,0.0,0.0,0.5,0.034482758620689655,0.0,0.01098901098901099,0.0,0.0,0.0,0.0,0.017241379310344827,0.0,0.013888888888888888,0.0,0.0,0.5,0.015873015873015872,0.0,,0.0,0.0,0.006802721088435374,,0.1,0.0,0.5,0.0,0.0,0.0,,0.0,0.3333333333333333,0.0,0.0,0.0,0.0,0.0,0.2,0.0,0.0,0.0,0.0,0.0,0.0,0.0,0.0,,0.034482758620689655,0.0,0.0
2015-12-08,0.0,0.14285714285714285,0.0,0.0,0.0,,0.0,0.0,0.0,,1.0,0.0,0.0,,0.0,0.0,0.0,0.02631578947368421,0.0,0.0,0.0,0.0,0.0,0.0,0.0,0.0,0.0,0.0,,0.0,0.0,0.0,0.0,0.0,0.0,0.0,0.0,0.0,0.0,0.0,0.009287925696594427,0.0,0.0,0.0,0.0,0.0,0.0,0.0,0.0,0.07692307692307693,0.018867924528301886,0.03278688524590164,0.0,0.0,0.0,0.0,0.0,0.0,0.0,0.0,0.0,0.0,0.0,,0.01020408163265306,0.0,0.007142857142857143,0.0136986301369863,0.0,0.0,0.0,0.0,0.0,0.0,0.0,0.125,0.0,0.0,0.0,0.0,0.0,0.0,0.0,0.012875536480686695,0.0017730496453900709,0.0030211480362537764,0.0,,0.0,0.0,0.0,0.0,0.0,0.0,0.0,,0.0,0.0,0.0,0.029411764705882353,,0.0,0.0,0.0,0.0,0.0,0.0,0.0,0.0,0.0,0.0,0.0,0.0,0.0,0.0,0.2857142857142857,0.0,0.0,0.0,0.0,0.0,0.0,0.0,0.0,0.0,0.1111111111111111,0.0,0.0,0.0,0.0,0.0,0.0,0.0,,0.0,0.0,,0.0,,0.0,0.0,0.0,0.0,0.0,0.0,0.0,0.0,,0.0,0.0,0.0,0.0,0.0,0.0,,0.0,0.0,0.011904761904761904,0.0,0.0,0.0,,0.0,0.0,0.0,0.0,0.004032258064516129,0.0,0.0,0.18181818181818182,0.0,0.0,0.375,0.0,0.0025974025974025974,0.0,0.003703703703703704,0.0,0.0,0.0,0.0,0.0,0.0035335689045936395,0.0,0.0,0.0,0.0,0.0,0.0,0.0,0.05263157894736842,0.0,0.0,0.0,0.0,0.0,0.0,0.023255813953488372,0.0,0.125,0.0,0.0,0.0,0.0,0.0,0.0,0.0,0.0,0.1111111111111111,,0.0,0.0,1.0,0.0,0.0,0.0,0.0,0.0,,,0.0,0.0,0.015151515151515152,0.0,0.02,0.0,0.0,0.0392156862745098,0.0035046728971962616,0.0,0.0,,0.0,0.0,0.0,0.015151515151515152,0.014388489208633094,,0.0,0.01015228426395939,0.002583979328165375,0.0,0.0,0.0,0.0,0.0,0.0,,0.2,0.0,0.0,0.041666666666666664,0.0,0.0,0.0,0.0,0.0,0.0,0.0,0.0,0.0,0.0,0.0,0.0,0.0,0.0,0.0,0.0,0.010362694300518135,0.0,0.0,0.0625,0.0,0.14285714285714285,0.0,1.0,0.0,0.0031545741324921135,0.03160270880361174,0.05263157894736842,0.0,0.0,0.0,0.0,0.0,0.0,0.0036496350364963502,0.009523809523809525,0.0,0.008333333333333333,0.0,,0.0,0.0,0.0,,0.0,0.0,0.0,0.0,0.0,0.0,,0.0,0.3333333333333333,0.0,0.0,0.0,0.0,0.02564102564102564,0.0,0.0,0.0,0.0,0.05263157894736842,,0.0,0.0,0.0,,0.0,0.0,0.0
2015-12-09,0.0,0.0,0.0,0.0,0.0,,0.0,0.0,0.0,,0.0,0.0,0.0,,0.0,0.0,0.0,0.02702702702702703,0.0,0.0,0.0018832391713747645,0.0,0.007751937984496124,0.0,0.0,0.0,0.0,0.0,,0.0,0.0,0.0,0.0,0.0,0.0,0.0,0.0,0.0,0.02,0.02564102564102564,0.006134969325153374,0.0,0.0,0.0,0.0,0.0,0.0,0.0,0.0,0.0,0.0,0.01639344262295082,0.0,0.0,0.0,0.0,0.0,0.0,0.0,0.0,0.0,0.0,0.0,,0.020618556701030927,0.0,0.0,0.0,0.0,0.0,1.0,0.0,0.0,0.0,0.0,0.0,0.0,0.0,0.0,0.0,0.009950248756218905,0.0,0.0,0.008547008547008548,0.0035087719298245615,0.004464285714285714,0.0,,0.0,0.0,0.0,0.0,0.0,0.0,0.0,,0.0,0.0,0.0,0.0,,0.0,0.0,0.0,0.0,0.0,0.0028653295128939827,0.0,0.0,0.0,0.0,0.0,0.0,0.0,0.0044444444444444444,0.0,0.0,0.0,0.0,0.0,0.0,0.0,0.0,0.0,0.0,0.0,0.0,0.0,0.0,0.0,0.034482758620689655,0.0,0.0,,0.0,0.0,,0.0,,0.0,0.0,0.0,0.0,0.0,0.0,0.0,0.0,,0.0,0.0,0.0,0.01020408163265306,0.043478260869565216,0.0,,0.0,0.0,0.0,0.0,0.0,0.0,,0.0,0.0,0.0,0.017241379310344827,0.004,0.0,0.0,0.0,0.0,0.0,0.0,0.0,0.002564102564102564,0.0,0.03278688524590164,0.0,0.0,0.14285714285714285,0.0,0.0,0.01048951048951049,0.0,0.03571428571428571,0.0,0.0,0.0,0.0,0.0,0.0,0.0,0.008403361344537815,0.006211180124223602,0.0,0.0,0.0,0.0,0.0,0.0,0.09090909090909091,0.0,0.0,0.0,0.010752688172043012,0.0,0.0,0.0,0.0,,0.0625,0.0,0.0,0.0,0.0,0.0,0.0,0.008695652173913044,0.0,,0.0,0.0,0.03816793893129771,0.01694915254237288,0.0,0.019230769230769232,0.0,0.0,0.0023148148148148147,0.0,0.0,,0.0,0.0,0.0,0.0,0.020689655172413793,,0.0,0.0,0.00702576112412178,0.0,0.0,0.0,0.013888888888888888,0.0,0.0,,0.0,0.0,0.0,0.0,0.0,0.07142857142857142,0.0,0.0,0.0,0.01,0.3333333333333333,0.0,0.0,0.0,0.0,0.0,0.0,0.0,0.0,0.0,0.015306122448979591,0.0,0.0,0.058823529411764705,0.0,0.14285714285714285,0.0,0.5,0.0,0.006153846153846154,0.0022271714922048997,0.0,0.0,0.0,0.0,0.017391304347826087,0.0,0.0,0.007142857142857143,0.018691588785046728,0.0,0.024793388429752067,0.0,,0.0,0.0,0.006802721088435374,,0.0,0.0,0.0,0.0,0.0,0.0,,0.0,0.0,0.005235602094240838,0.0,0.0,0.0,0.0,0.0,0.0,0.0,0.0,0.0,0.0,0.0,0.0,0.0,,0.034482758620689655,0.0,0.0
2015-12-10,0.0,0.0,0.0,0.0,0.0,,0.0,0.25,0.0,0.0,0.0,0.0,0.0,,0.034482758620689655,0.0,0.0,0.0,0.0,0.0,0.000931098696461825,0.0,0.015037593984962405,0.0,0.0,0.0,0.017241379310344827,0.0,,0.0,0.0,0.0,0.0,0.0,0.0,0.0,0.0,0.0,0.006711409395973154,0.0,0.008982035928143712,0.0,0.0,0.0,0.0,0.0,0.0,0.0,0.0,0.0,0.0,0.0,0.0,0.0,0.0,0.0,0.0,0.0,0.06666666666666667,0.0,0.0,0.0,0.0,,0.0,0.0,0.0,0.0,0.0,0.0,0.0,0.0,0.0,0.0,0.0,0.0,0.0,0.03125,0.0,0.0,0.0,0.037037037037037035,0.0,0.0,0.0,0.0014577259475218659,0.0,,0.0,0.0,0.0,0.0,0.0,0.0,0.0,,0.0,0.0,0.0,0.0,,0.0,0.0,0.0,0.0,0.0,0.0,0.0,0.0,0.0,0.0,0.0,0.0,0.0,0.0,0.0,0.0,0.16666666666666666,0.0,0.0,0.0,0.0,0.0,0.0,0.0,0.0,0.0,0.0,0.0,0.0,0.0,0.0,0.0,,0.0,0.0,,0.0,,0.0,0.0,0.008264462809917356,0.0,0.0,0.0,0.0,0.0,,0.0,0.010638297872340425,0.0,0.0,0.0,0.0,,0.0,0.0,0.0,0.0,0.0,0.0,,0.0,0.0,0.0,0.0,0.0,0.0,0.0,0.0,0.034482758620689655,0.0,0.0,0.0,0.0,0.0,0.014234875444839857,0.06666666666666667,0.0,0.14285714285714285,0.0,0.0,0.0034602076124567475,0.04,0.0,0.0,0.0,0.0,0.0,0.0,0.0,0.0,0.0,0.0,0.0,0.0,0.0,0.022222222222222223,0.0,0.0,0.0,0.0,0.0,0.004694835680751174,0.0,0.0,0.0,0.0,0.0,,0.0,0.0,0.0,0.25,0.0,0.0,0.002857142857142857,0.0,,,0.0,0.0,0.015151515151515152,0.0,0.0,0.0,0.0,0.0,0.003367003367003367,0.0,0.0,1.0,0.0,0.0,0.0,0.0,0.02702702702702703,,0.0,0.005,0.0069605568445475635,0.0,0.0,0.0,0.0,0.0,0.0,,0.1,0.0,0.0,0.0,0.0,0.0,0.0,0.0,0.0,0.0,0.0,0.03773584905660377,0.0,0.0,0.0,0.0,0.0,0.0,0.011494252873563218,0.0,0.004878048780487805,0.0,0.0,0.058823529411764705,0.0,0.0,0.0,0.0,0.0,0.0,0.025806451612903226,0.0,0.0,0.0,0.0,0.00847457627118644,0.0,0.0,0.003424657534246575,0.00909090909090909,0.0,0.07086614173228346,0.0,,0.0,0.0,0.0,,0.0,0.0,0.5,0.0,0.0,0.0,,0.0,0.0,0.01020408163265306,0.0,0.0,0.0,0.023255813953488372,0.0,0.0,0.0,0.0,0.0,,0.0,0.0,0.0,,0.0,0.0,0.0
2015-12-11,0.0,0.0,0.0,0.0,0.0,,0.0,0.0,0.0,,0.0,0.0,0.0,,0.0,0.0,0.0,0.0,0.0,0.0,0.0,0.0,0.014814814814814815,0.0,0.0,0.0,0.0,0.0,,0.0,0.3333333333333333,0.0,0.0,0.0,0.0,0.0,0.25,0.0,0.006711409395973154,0.0,0.002967359050445104,0.0,0.0,0.0,0.0,0.0,0.0,0.5,0.0,0.07692307692307693,0.0,0.0,0.003745318352059925,0.0,0.0,0.0,0.0,0.0,0.0,0.0,0.0,0.0,0.0,,0.009708737864077669,0.0,0.0,0.0,0.0,0.0,0.0,0.0,0.0,0.0,0.0,0.0,0.0,0.0,0.0,0.0,0.0,0.0,0.0,0.0,0.001697792869269949,0.0043859649122807015,0.0,,0.0,0.0,0.0,0.002770083102493075,0.0,0.0,0.0,,0.0,0.0,0.14285714285714285,0.0,,0.0,0.0,0.0,0.0,0.0,0.0028089887640449437,0.0,0.0,0.0,0.0,0.0,0.0,0.6,0.00423728813559322,0.0,0.0,0.16666666666666666,0.0,0.0,0.0,0.0,0.0,0.0,0.0,0.0,0.0,0.0,0.0,0.0,0.0,0.0,0.043478260869565216,,0.0,0.0,,0.0,,0.0,0.0,0.0,0.0,0.0,0.13636363636363635,0.0,0.0,,0.0,0.0,0.0,0.0,0.0,0.0,,0.0,0.0,0.0,0.0,0.0,0.0,,0.0,0.0,0.0,0.0,0.0,0.0,0.3333333333333333,0.0,0.0,0.0,0.0,0.0,0.0,0.0,0.0035842293906810036,0.0,0.0,0.0,0.0,0.0,0.0035087719298245615,0.0,0.0,0.0,0.0,0.0,0.0,0.0,0.0,0.0,0.0,0.002932551319648094,0.0,0.0,0.0,0.0,0.0,0.0,0.0,0.0,0.05,0.004739336492890996,0.0,0.0,0.0,0.1,0.0,,0.0,0.0,0.0,0.0,0.0,0.0,0.0,0.008403361344537815,,,0.0,0.0,0.0,0.0,0.0,0.0,0.0,0.0,0.001128668171557562,0.0,0.0,0.0,0.0,0.0,0.0,0.029411764705882353,0.0,,0.0,0.0,0.011547344110854504,0.0,0.0,0.0,0.0,0.0,0.0,0.0,0.0,0.0,0.0,0.0,0.0,0.0,0.0,0.0,0.0,0.0,0.0,0.0,0.0,0.0,0.0,0.0,0.0,0.0,0.011904761904761904,0.0,0.00975609756097561,0.021739130434782608,0.0,0.0,0.0,0.0,0.0,0.0,0.0,0.003003003003003003,0.004291845493562232,0.0,0.0,0.0,0.0,0.00847457627118644,0.0,0.0,0.003436426116838488,0.0,0.0,0.007874015748031496,0.0,,0.0,0.0,0.0,,0.0,0.0,0.5,0.0,0.0,0.0,,0.0,0.0,0.0,0.0,0.0,0.0,0.0,0.0,0.0,0.0,0.25,0.0,0.0,0.0,0.0,0.0,,0.0,0.0,0.16666666666666666
2015-12-12,0.0,0.0,0.027777777777777776,0.0,0.0,,0.0,0.0,0.0,,0.0,0.0,0.0,,0.05,0.0,0.0,0.0,0.0,0.6,0.005242463958060288,0.0,0.0,0.0,0.0,0.0,0.0,0.0,,0.0,0.0,,0.0,0.0,0.0,0.0,0.0,0.0,0.009433962264150943,0.0,0.0091324200913242,0.0,0.0,0.0,0.0,0.0,0.0,0.0,0.0,0.0,0.023809523809523808,0.0,0.02843601895734597,0.0,0.0,0.07142857142857142,0.0,0.0,0.0,0.0,0.03225806451612903,0.0,0.0,,0.014285714285714285,0.0,0.0040650406504065045,0.02,0.0,0.0,0.0,0.0625,0.0,0.0,0.0,0.0,0.0,0.0,0.0,0.0,0.006756756756756757,0.0,1.0,0.012903225806451613,0.011337868480725623,0.0019267822736030828,0.0,,0.0,0.0,0.0,0.027888446215139442,1.0,0.0,0.0,,0.0,0.0,0.0,0.0,,0.0,0.0,0.0,0.0,0.0,0.004830917874396135,0.0,0.0,0.0,0.0,0.0,0.0,0.6666666666666666,0.017167381974248927,0.0,0.0,0.0,0.0,0.0,0.0,0.0,0.0,0.0,0.0,0.0,0.0,0.0,0.0,0.1111111111111111,0.14285714285714285,0.0,0.0,,0.0,0.0,,0.0,0.0,0.0,0.0,0.0,0.0,0.02586206896551724,0.0,0.0,0.0,,0.0,0.014285714285714285,0.0,0.0031545741324921135,0.058823529411764705,0.0,,0.0,0.0,0.0,0.0,0.0,0.0,,0.0,0.0,0.08333333333333333,0.0,0.0,0.0,0.0,0.0,0.0,0.0,0.0,1.0,0.008310249307479225,0.0,0.00909090909090909,0.0,0.0,0.0,0.0,0.0,0.01948051948051948,0.0,0.0,0.05555555555555555,0.0,0.0,0.0,0.0,0.0,0.6666666666666666,0.011627906976744186,0.01440922190201729,0.0,0.205,0.0,0.0,0.0,0.0,0.0,0.0,0.05263157894736842,0.004878048780487805,0.015873015873015872,0.5,0.0,0.0,0.0,,0.0,0.0,,0.0,0.0,0.0,0.021739130434782608,0.010638297872340425,0.0,,0.0,0.0,0.018867924528301886,0.015151515151515152,0.0,0.06060606060606061,0.0,0.0,0.013513513513513514,0.045454545454545456,0.0,,0.0,0.0,0.0,0.0,0.00847457627118644,,0.0,0.0,0.011834319526627219,0.0,0.0,0.0,0.057692307692307696,0.0,0.0,,0.0,0.0,0.0,0.0,0.0,0.0,0.0,0.0,0.0,0.0,0.0,0.0,0.0,0.0,0.0,0.0,0.0,0.0,0.0449438202247191,0.0,0.006134969325153374,0.04285714285714286,0.0,0.0,0.0,0.0,0.0,0.0,0.0,0.0,0.0029239766081871343,0.0,0.0,0.0,0.0,0.012658227848101266,0.0,0.0125,0.0,0.012195121951219513,0.0,0.011235955056179775,0.0,,0.0,0.0,0.009615384615384616,,0.0,0.0,0.5,0.0,0.0,0.0,,0.0,0.0,0.012048192771084338,0.0,0.0,0.0,0.0,0.0,0.0,0.0,0.0,0.07692307692307693,0.0,0.0,0.0,0.0,,0.0,0.0,0.0
2015-12-13,0.0,0.0,0.0196078431372549,0.0,0.0,,0.0,0.25,0.0,1.0,0.0,0.1111111111111111,0.0,,0.0,0.0,0.0,0.02702702702702703,0.0,0.0,0.0,0.0,0.008,0.0,0.0,0.0,0.0,0.0,,0.0,0.0,,0.0,0.0,0.2727272727272727,0.0,0.0,0.0,0.014285714285714285,0.02631578947368421,0.0,0.0,0.0,0.0,0.0,0.0,0.0,0.0,0.0,0.0,0.0,0.018867924528301886,0.0,0.0,0.0,0.0,0.0,0.0,0.0,0.0,0.027777777777777776,0.0,0.0,,0.0,0.0,0.0,0.0,0.0,0.0,0.0,0.05263157894736842,0.0,0.0,0.0,0.0,0.0,0.02,0.0,0.0,0.0,0.0,0.6666666666666666,0.0091324200913242,0.012455516014234875,0.004651162790697674,0.0,,0.0,0.0,0.0,0.0,1.0,0.0,0.0,,0.0,0.0,0.0,0.0,,0.0,0.0,0.1,0.0,0.0,0.003472222222222222,0.0,0.0,0.0,0.0,0.0,0.0,0.0,0.0043859649122807015,0.16666666666666666,0.0,0.0,0.0,0.0,0.0,0.0,0.6666666666666666,0.0,0.0,0.0,0.0,0.0,0.0,0.2,0.2413793103448276,0.0,0.0,,0.0,0.0,0.0,0.0,0.0,0.0,0.0,0.0,0.0,0.0,0.0,0.0,0.0,,1.0,0.0,0.0,0.012468827930174564,0.0,0.0,,0.0,0.0,0.0,0.0,0.0,0.0,,0.0,0.0,0.0,0.0,0.003875968992248062,0.0,1.0,0.0,0.03333333333333333,0.0,0.2222222222222222,0.0,0.007556675062972292,0.0,0.011320754716981131,0.0,0.0,0.0,0.0,0.0,0.008583690987124463,0.0,0.0,0.0,0.0,0.0,0.0,0.0,0.0,0.0,0.0,0.0,0.0,0.0730593607305936,0.0,0.0,0.0,0.25,0.0,0.0,0.0,0.004672897196261682,0.012048192771084338,0.0,0.0,0.0,0.0,,0.06666666666666667,0.0,0.0,0.0,0.0,0.0,0.012307692307692308,0.0,,,0.14285714285714285,0.0,0.008,0.016129032258064516,0.0,0.0,0.0,0.02040816326530612,0.006265664160401002,0.0,0.0,1.0,0.0,0.0,0.0,0.014925373134328358,0.007042253521126761,,0.0,0.005376344086021506,0.004819277108433735,0.0,0.0,0.0,0.015625,0.0,0.0,,0.0,0.0,0.0,0.07142857142857142,0.0,0.0,0.0,0.0,0.0,0.010526315789473684,0.0,0.0,0.0,0.12121212121212122,0.14285714285714285,0.0,0.0,0.2857142857142857,0.0,0.3333333333333333,0.01020408163265306,0.012048192771084338,0.0,0.058823529411764705,0.0,0.14285714285714285,0.0,0.0,0.03571428571428571,0.0030959752321981426,0.053488372093023255,0.0,0.0,0.0,0.0,0.0,0.0,0.0125,0.01056338028169014,0.00980392156862745,0.0,0.00909090909090909,0.0,,0.0,0.0,0.0,,0.0,0.0,1.0,0.0,0.0,0.0,,0.0,0.0,0.010752688172043012,0.0,0.0,0.0,0.0,0.0,0.0,0.0,0.0,0.0,,0.3333333333333333,0.0,0.0,,0.0,0.0,0.0
2015-12-14,0.0,0.0,0.0,0.0,0.0,,0.0,0.0,0.0,,0.0,0.1,0.0,,0.03571428571428571,0.0,0.125,0.04878048780487805,0.0,0.0,0.00841908325537886,0.0,0.007462686567164179,0.14285714285714285,0.2,0.0,0.0,0.0,,0.0,0.0,,0.05405405405405406,0.14285714285714285,0.1,0.0,0.0,0.0,0.006756756756756757,0.0,0.026865671641791045,0.0,0.0,0.0,0.0,0.0,0.3333333333333333,0.5,0.0,0.07692307692307693,0.017857142857142856,0.0,0.00749063670411985,0.0,0.0,0.0,0.0,0.0,0.0,0.0,0.0,0.0,0.0,,0.04807692307692308,0.0,0.007042253521126761,0.013333333333333334,0.0,0.0,1.0,0.0,0.0,0.0,0.0,0.0,0.3333333333333333,0.07692307692307693,0.0,0.25,0.019801980198019802,0.07407407407407407,0.0,0.02510460251046025,0.010238907849829351,0.004392386530014641,0.0,,0.0,0.2857142857142857,0.0,0.0056657223796034,0.5,0.0,0.0,,1.0,0.0,0.14285714285714285,0.0,,0.0,0.0,0.1,0.0,0.0,0.037142857142857144,0.0,0.0,0.0,0.0,0.16666666666666666,0.0,1.0,0.012875536480686695,0.0,0.0,0.0,0.0,0.0,0.0,0.03333333333333333,0.0,0.0,0.0,0.0,0.0,0.0,0.0,0.0,0.0,0.05,0.0,,0.16666666666666666,0.3333333333333333,,0.0,,0.0,0.25,0.0,0.0,0.0,0.4,0.0,0.0,,0.0,0.021052631578947368,0.0,0.0,0.0,0.0,,0.0,0.0,0.034482758620689655,0.0,0.0,0.0,,0.0,0.0,0.0,0.05263157894736842,0.033962264150943396,0.0,0.0,0.0,0.0,0.0,0.125,0.0,0.00510204081632653,0.0,0.010771992818671455,0.0,0.0,0.0,0.0,0.0,0.18661971830985916,0.0,0.0,0.0,0.125,0.0,0.0,0.0,0.0,0.0,0.041666666666666664,0.008982035928143712,0.0,0.00847457627118644,0.0,0.0,0.14285714285714285,0.0,0.0,0.0,0.0,0.009615384615384616,0.0,0.0,0.0,0.0,0.0,,0.058823529411764705,0.0,0.0,0.0,0.0,0.2,0.014492753623188406,0.0,,,0.14285714285714285,0.0,0.007692307692307693,0.016666666666666666,0.0,0.018867924528301886,1.0,0.019230769230769232,0.011210762331838564,0.0,1.0,0.0,0.0,0.0,0.0,0.058823529411764705,0.02040816326530612,,0.0,0.015151515151515152,0.012755102040816327,0.0,0.0,0.0,0.013888888888888888,0.0,0.0,0.0,0.1,0.0,0.0,0.0,0.0,0.07142857142857142,0.4,0.0,0.0,0.02040816326530612,0.0,0.09803921568627451,0.0,0.0,0.0,0.043478260869565216,0.0,0.14285714285714285,0.0,0.0,0.014778325123152709,0.0,0.05263157894736842,0.0,0.0,0.0,0.3333333333333333,0.0,0.0,0.0060790273556231,0.010964912280701754,0.05263157894736842,0.0,0.0,0.0,0.017094017094017096,0.0,0.0,0.031141868512110725,0.018691588785046728,0.0,0.016129032258064516,0.0,,0.0,0.1,0.006944444444444444,,0.0,0.0,1.0,0.0,0.3333333333333333,0.09090909090909091,,0.0,0.0,0.005154639175257732,0.0,0.0,0.0,0.0,0.0,0.0,0.0,0.0,0.05555555555555555,0.0,0.0,0.0,0.5,,0.0,0.0,0.0
2015-12-15,0.0,0.0,0.09090909090909091,0.0,0.0,,0.0,0.0,0.0,,0.0,0.0,0.0,,0.0,0.0,0.0,0.05263157894736842,0.0,0.8,0.007497656982193065,0.0,0.023076923076923078,0.0,0.0,0.0,0.0,0.0,,0.25,0.0,0.0,0.027777777777777776,0.2857142857142857,0.36363636363636365,0.0,0.0,0.0,0.02666666666666667,0.07894736842105263,0.0061162079510703364,0.0,0.0,0.0,0.0,0.0,0.0,0.0,0.0,0.0,0.0,0.03278688524590164,0.0037313432835820895,0.14285714285714285,0.0,0.0,0.0,0.5,0.06666666666666667,0.0,0.0,0.1,0.0,,0.02040816326530612,0.0,0.010676156583629894,0.0136986301369863,0.0,0.0,0.0,0.21052631578947367,0.0,0.6666666666666666,0.18181818181818182,0.0,0.0,0.0,0.0,0.0,0.015,0.0,0.0,0.012987012987012988,0.4876325088339223,0.010574018126888218,0.0,,0.0,0.0,0.12,0.011494252873563218,0.0,0.0,0.0,,0.0,0.0,0.0,0.029411764705882353,,0.0,0.0,0.0,0.0,0.0,0.008823529411764706,0.0,0.2,0.17647058823529413,0.29411764705882354,0.0,0.5,0.0,0.004484304932735426,0.0,0.21428571428571427,0.0,0.0,0.3333333333333333,0.0,0.0,0.0,0.0,0.1111111111111111,0.0,0.0,0.0,0.0,0.0,0.0967741935483871,0.058823529411764705,0.0,,0.4,0.0,,0.0,0.0,0.0,0.25,0.0,0.0,0.018072289156626505,0.22727272727272727,0.0,0.0,,1.0,0.02197802197802198,0.0,0.033854166666666664,0.12,0.42857142857142855,,0.0,0.0,0.047058823529411764,0.0,0.3333333333333333,0.0,,0.0,0.4,0.0,0.0,0.00398406374501992,0.0,0.5,0.09090909090909091,0.0,0.0,0.0,0.5,0.05194805194805195,0.0,0.034990791896869246,0.14285714285714285,0.0,0.0,0.0,0.0,0.017605633802816902,0.0,0.0,0.03333333333333333,0.0,0.0,0.0,0.0,0.10526315789473684,0.0,0.03389830508474576,0.00911854103343465,0.0,0.03734439834024896,0.0,0.06818181818181818,0.0,0.125,0.0,0.0,0.0,0.014925373134328358,0.043010752688172046,0.0,0.0,0.0,0.0,,0.0,0.16666666666666666,0.0,0.0,0.08,0.2,0.04129793510324484,0.01818181818181818,,,0.2857142857142857,0.0,0.021739130434782608,0.01694915254237288,0.02,0.08163265306122448,1.0,0.058823529411764705,0.015258215962441314,0.0,0.0,,0.0,0.0,0.0,0.014925373134328358,0.056338028169014086,,0.0,0.0,0.03865979381443299,0.0,0.0,0.0,0.0273972602739726,0.0,0.0,,0.2,0.0,0.0,0.08333333333333333,0.0,0.0,0.0,0.0,0.2857142857142857,0.0,0.0,0.0,1.0,0.08571428571428572,0.0,0.0,0.0,0.0,0.0,0.0,0.04020100502512563,0.046511627906976744,0.0,0.125,0.0,0.0,0.0,0.0,0.0,0.027777777777777776,0.02242152466367713,0.05263157894736842,0.2,0.05555555555555555,0.0,0.08695652173913043,0.0,0.014285714285714285,0.040145985401459854,0.037037037037037035,0.0,0.06666666666666667,0.0,,0.0,0.0,0.03355704697986577,,0.0,0.0,0.0,0.0,0.0,0.0,,0.0,0.0,0.005319148936170213,0.0,0.0,0.07692307692307693,0.1282051282051282,0.0,0.0,0.0,0.0,0.05263157894736842,,0.0,0.0,0.0,,0.06896551724137931,0.0,0.0
2015-12-16,0.0,0.0,0.01818181818181818,0.5,0.0,,0.0,0.0,0.0,,1.0,0.0,0.0,,0.0,0.0,0.0,0.027777777777777776,0.0,0.0,0.0028116213683223993,0.0,0.0,0.0,0.0,0.0,0.0,0.0,,0.1111111111111111,0.0,0.0,0.0,0.0,0.0,0.0,0.0,0.0,0.006711409395973154,0.05128205128205128,0.012012012012012012,0.0,0.0,0.0,0.0,0.0,0.0,0.5,0.047619047619047616,0.0,0.0,0.0,0.0,0.125,0.0,0.0,0.0,0.0,0.0,0.0,0.0,0.1,0.0,,0.0,0.0,0.003048780487804878,0.0,0.0,0.0,0.0,0.0,0.0,0.0,0.0,0.0,0.0,0.017241379310344827,0.0,0.0,0.01,0.0,0.0,0.02531645569620253,0.015358361774744027,0.0014749262536873156,0.0,,0.0,0.0,0.0,0.0028169014084507044,0.5,0.0,0.0,,0.0,0.0,0.0,0.0,,0.0,0.0,0.1,0.0,0.0,0.0,0.0,0.0,0.0,0.058823529411764705,0.0,0.0,0.0,0.0,0.0,0.15384615384615385,0.0,0.0,0.0,0.0,0.034482758620689655,0.0,0.0,0.0,0.0,0.0,0.0,0.0,0.0,0.0,0.0,0.0,,0.0,0.0,,0.0,0.0,0.0,0.0,0.0,0.0,0.006060606060606061,0.0,0.0,0.0,,0.0,0.010638297872340425,0.0,0.01160092807424594,0.0,0.0,,0.0,0.0,0.011363636363636364,0.0,0.0,0.0,,0.0,0.0,0.0,0.0,0.0,0.0,0.6666666666666666,0.0,0.0,0.0,0.0,0.5,0.005076142131979695,0.0,0.00718132854578097,0.0,0.0,0.0,0.0,0.0,0.017605633802816902,0.0,0.0,0.0,0.0,0.0,0.14285714285714285,0.0,0.0,0.0,0.0,0.0,0.0,0.0,0.0,0.0,0.14285714285714285,0.0,0.0,0.0,0.0,0.009708737864077669,0.010638297872340425,0.0,0.25,0.0,0.0,,0.0,0.0,0.0,0.0,0.0,0.0,0.005747126436781609,0.0,,,0.14285714285714285,0.0,0.007352941176470588,0.0,0.0,0.0,0.0,0.0,0.0011376564277588168,0.0,0.0,,0.0,0.0,0.0,0.0,0.0,,0.0,0.0,0.002320185614849188,0.0,0.0,0.0,0.0,0.0,0.0,1.0,0.0,0.0,0.0,0.08,0.0,0.0,0.0,0.0,0.0,0.010101010101010102,0.0,0.0,0.0,0.0,0.0,0.0,0.0,0.0,0.0,0.0,0.009852216748768473,0.0,0.0,0.0,0.0,0.0,0.0,0.0,0.0,0.0,0.006564551422319475,0.0,0.0,0.0,0.0,0.00847457627118644,0.0,0.014084507042253521,0.007194244604316547,0.008771929824561403,0.0,0.008130081300813009,0.0,,0.0,0.0,0.006756756756756757,,0.0,0.0,0.5,0.0,0.0,0.0,,0.0,0.0,0.010362694300518135,0.0,0.0,0.0,0.023809523809523808,0.0,0.0,0.0,0.0,0.0,0.0,0.0,0.07692307692307693,0.0,,0.0,0.0,0.0
2015-12-17,0.0,0.0,0.0,0.0,0.0,,0.0,0.0,0.0,1.0,0.0,0.0,0.0,,0.0,0.0,0.0,0.021739130434782608,0.0,0.08695652173913043,0.0009302325581395349,0.0,0.022388059701492536,0.14285714285714285,0.0,0.0,0.0,0.0,,0.0,0.0,0.0,0.025,0.0,0.09090909090909091,0.0,0.0,0.0,0.013986013986013986,0.0975609756097561,0.009287925696594427,0.0,0.0,0.0,0.0,0.0,0.0,0.0,0.0,0.06666666666666667,0.0,0.0,0.0036363636363636364,0.0,0.0,0.058823529411764705,0.0,0.0,0.0,0.14285714285714285,0.05714285714285714,0.0,0.0,,0.01,0.0,0.003105590062111801,0.02666666666666667,0.0,0.0,0.0,0.0,0.0,0.0,0.0,0.0,0.0,0.03278688524590164,0.0,0.0,0.004975124378109453,0.0,0.0,0.017857142857142856,0.0,0.0026917900403768506,0.0,,0.0,0.0,0.03225806451612903,0.0,0.0,0.0,0.0,,0.25,0.5,0.0,0.0,,0.0,0.0,0.0,0.0,0.0,0.08187134502923976,0.25,0.0,0.0,0.0,0.0,0.0,0.0,0.0,0.0,0.0,0.0,0.0,0.0,0.0,0.0,0.0,0.0,0.0,0.0,0.0,0.0,0.0,0.08333333333333333,0.06451612903225806,0.0,0.0,,0.0,0.0,0.0,0.0,0.0,0.0,0.0,0.0,0.0,0.006024096385542169,0.0,0.0,0.0,,0.0,0.010309278350515464,0.0,0.00234192037470726,0.0,0.0,,0.0,0.0,0.0,0.0,0.0,0.0,,0.0,0.0,0.047619047619047616,0.01694915254237288,0.018315018315018316,0.0,0.0,0.0,0.0,0.0,0.0,0.0,0.0049382716049382715,0.0,0.0033333333333333335,0.07142857142857142,0.0,0.0,0.0,0.0,0.01090909090909091,0.0,0.029411764705882353,0.0,0.0,0.0,0.0,0.0,0.0,0.0,0.008333333333333333,0.002898550724637681,0.0,0.0,0.0,0.022222222222222223,0.2,0.0,0.0,0.0,0.05555555555555555,0.03587443946188341,0.02197802197802198,0.0,0.0,0.0,0.0,0.0,0.0,0.0,0.0,0.0,0.0,0.0,0.008670520231213872,0.008547008547008548,0.0,,0.0,0.0,0.0,0.0,0.0,0.019230769230769232,0.0,0.0,0.010285714285714285,0.09375,0.0,1.0,0.0,0.0,0.0,0.0,0.012738853503184714,,0.0,0.009433962264150943,0.002150537634408602,0.0,0.0,0.0,0.0136986301369863,0.0,0.0,,0.0,0.0,0.0,0.03571428571428571,0.0,0.07142857142857142,0.0,0.0,0.0,0.009615384615384616,0.0,0.02,0.0,0.0,0.0,0.0,0.0,0.0,0.0,0.0,0.013761467889908258,0.011494252873563218,0.05,0.0,0.0,0.0,0.0,0.0,0.0,0.0,0.010395010395010396,0.05263157894736842,0.0,0.0,0.0,0.008620689655172414,0.0,0.011904761904761904,0.0033783783783783786,0.0,0.0,0.0,0.0,,0.0,0.08333333333333333,0.006578947368421052,,0.0,0.0,0.5,0.0,0.0,0.0,,0.0,0.0,0.005,0.0,0.0,0.0,0.0,0.0,0.0,0.0,0.0,0.0,,0.3333333333333333,0.0,0.0,,0.0,0.0,0.0
2015-12-18,0.14285714285714285,0.0,0.0,0.0,0.0,,0.0,0.5,0.0,,1.0,0.0,0.0,,0.0,0.0,0.0,0.021739130434782608,0.0,0.041666666666666664,0.0037629350893697085,0.0,0.007575757575757576,0.0,0.0,0.0,0.0,0.0,,0.25,0.0,0.0,0.0,0.0,0.0,0.0,0.0,0.0,0.013605442176870748,0.047619047619047616,0.012738853503184714,0.0,0.0,0.0,0.0,0.0,0.0,0.0,0.0,0.06666666666666667,0.0,0.05,0.003676470588235294,0.07692307692307693,0.0,0.0,0.0,0.0,0.0,0.14285714285714285,0.02857142857142857,0.0,0.0,,0.02040816326530612,0.0,0.003125,0.014084507042253521,0.0,0.0,0.0,0.0,0.0,0.0,0.0,0.0,0.3333333333333333,0.015873015873015872,0.0,0.0,0.0,0.0,0.0,0.02252252252252252,0.00463678516228748,0.005326231691078562,0.0,,0.0,0.0,0.0,0.005681818181818182,0.0,0.0,0.0,,0.0,0.0,0.0,0.0,,0.0,0.0,0.2,0.0,0.0,0.014367816091954023,0.0,0.16666666666666666,0.0,0.2,0.0,0.0,0.0,0.0,0.0,0.0,0.0,0.0,0.0,0.0,0.0,0.0,0.0,0.09090909090909091,0.0,0.0,0.0,0.0,0.0,0.0,0.0,0.0,,0.0,0.0,0.0,0.0,0.0,0.0,0.0,0.0,0.0,0.006024096385542169,0.047619047619047616,0.0,0.0,,0.0,0.01020408163265306,0.0,0.006864988558352402,0.0,0.0,,0.0,0.0,0.011363636363636364,0.0,0.0,0.07692307692307693,,0.0,0.125,0.0,0.0,0.007380073800738007,0.0,0.3333333333333333,0.0,0.0,0.0,0.0,0.0,0.014634146341463415,0.0,0.018425460636515914,0.0,0.0,0.0,0.05263157894736842,0.0,0.010948905109489052,0.038461538461538464,0.07894736842105263,0.0,0.0,0.0,0.0,0.0,0.0,0.0,0.01639344262295082,0.008264462809917356,0.0,0.0,0.0,0.0,0.0,0.125,0.09090909090909091,0.0,0.0,0.00909090909090909,0.0,0.0,0.25,0.0,0.0,0.0,0.0,0.16666666666666666,0.0,0.14285714285714285,0.0,0.2,0.002976190476190476,0.01680672268907563,0.16666666666666666,,0.0,0.0,0.0,0.014285714285714285,0.019230769230769232,0.0,0.0,0.07142857142857142,0.00340522133938706,0.0,0.0,1.0,0.0,0.0,0.0,0.0,0.0189873417721519,,0.0,0.004694835680751174,0.006396588486140725,0.0,0.0,0.0,0.013513513513513514,0.0,0.0,0.0,0.18181818181818182,0.0,0.0,0.1111111111111111,0.0,0.0,0.0,0.5,0.14285714285714285,0.009708737864077669,0.0,0.020833333333333332,0.5,0.05128205128205128,0.14285714285714285,0.0,0.0,0.0,0.0,0.0,0.03686635944700461,0.02197802197802198,0.0,0.2857142857142857,0.07142857142857142,0.0,0.0,0.0,0.0,0.013927576601671309,0.1469387755102041,0.0,0.0,0.0,0.0,0.008620689655172414,0.0,0.011111111111111112,0.016722408026755852,0.035398230088495575,1.0,0.03125,0.0,,0.0,0.0,0.0,,0.0,0.0,0.75,0.0,0.0,0.047619047619047616,,0.0,0.0,0.014705882352941176,0.0,0.0,0.0,0.045454545454545456,0.0,0.0,0.0,0.0,0.0,0.0,0.0,0.0,0.0,,0.03125,0.0,0.0
2015-12-19,0.0,0.0,0.023255813953488372,0.0,0.0,,0.0,0.0,0.0,,1.0,0.0,0.0,,0.0,0.0,0.0,0.022222222222222223,0.0,0.03571428571428571,0.007268951194184839,0.0,0.0,0.0,0.0,0.0,0.020833333333333332,0.0,,0.0,0.0,,0.0,0.0,0.0,0.0,0.0,0.0,0.0,0.0,0.00816326530612245,0.0,0.0,0.0,0.0,0.0,0.0,0.5,0.0,0.09090909090909091,0.022727272727272728,0.0,0.013452914798206279,0.0,0.0,0.0625,0.0,0.0,0.0,0.2857142857142857,0.0,0.0,0.0,,0.012195121951219513,0.0,0.014492753623188406,0.0,0.0,0.0,0.0,0.047619047619047616,0.0,0.0,0.0,0.0,0.0,0.0,0.0,0.0,0.0,0.0,0.0,0.0,0.00847457627118644,0.004594180704441042,0.0,,0.0,0.0,0.0,0.010452961672473868,1.0,0.0,0.0,,0.0,0.0,0.0,0.03571428571428571,,0.0,0.0,0.1,0.0,0.0,0.003676470588235294,0.0,0.16666666666666666,0.0,0.0,0.25,0.0,0.0,0.0,0.0,0.0,0.0,0.0,0.0,0.0,0.0,0.0,0.5,0.0,0.0,0.0,0.0,0.0,0.0,0.0,0.0,0.0,,0.0,0.0,0.0,0.0,0.0,0.0,0.25,0.0,0.0,0.0,0.0,0.0,0.0,,0.0,0.023255813953488372,0.0,0.002570694087403599,0.0,0.0,,0.0,0.0,0.0,0.0,0.0,0.08333333333333333,0.0,0.0,0.0,0.0,0.0,0.007380073800738007,0.0,0.0,0.0,0.0,0.0,0.14285714285714285,0.0,0.010582010582010581,0.0,0.02029520295202952,0.0,0.0,0.0,0.0,0.0,0.0,0.04,0.0,0.0,0.0,0.0,0.0,0.0,0.0,0.25,0.0,0.007731958762886598,0.0,0.00975609756097561,0.0,0.0,0.0,0.0,0.0,0.0,0.0,0.02262443438914027,0.0,0.0,0.0,0.0,0.0,1.0,0.0,0.0,0.0,0.0,0.0,0.0,0.003215434083601286,0.0196078431372549,0.0,,0.0,0.0,0.0,0.0,0.0,0.0,0.0,0.0,0.006675567423230975,0.038461538461538464,0.0,,0.0,0.0,0.0,0.0,0.007142857142857143,,0.0,0.0,0.009259259259259259,0.07692307692307693,0.0,0.0,0.0,0.0,0.0,,0.0,0.0,0.0,0.0,0.0,0.0,0.0,0.5,0.0,0.012345679012345678,0.0,0.0,0.0,0.0,0.0,0.0,0.0,0.0,0.0,0.0,0.0,0.0,0.0,0.0,0.07142857142857142,0.0,0.0,0.0,0.0,0.011976047904191617,0.013793103448275862,0.0,0.0,0.0,0.0,0.0,0.0,0.0,0.013157894736842105,0.010752688172043012,0.0,0.0,0.0,,0.0,0.0,0.0,,0.0,0.2,1.0,0.0,0.0,0.14285714285714285,,0.0,0.0,0.0,0.0,0.0,0.0,0.0,0.0,0.0,0.0,0.0,0.0,0.0,0.0,0.0,0.0,,0.0,0.0,0.0
2015-12-20,0.0,0.0,0.018518518518518517,0.0,0.0,,0.0,0.25,0.0,0.0,0.0,0.0,0.0,,0.0,0.0,0.0,0.0,0.0,0.36666666666666664,0.0019212295869356388,0.0,0.008,0.0,0.0,0.0,0.0,0.0,,0.14285714285714285,0.0,0.0,0.0,0.0,0.0,0.0,0.0,0.0,0.0,0.07317073170731707,0.0,0.0,0.0,0.0,0.0,0.0,0.0,0.0,0.0,0.0,0.0,0.05660377358490566,0.003937007874015748,0.6428571428571429,0.0,0.0,0.0,0.0,0.0,0.0,0.0,0.05555555555555555,0.5,,0.0,0.0,0.00684931506849315,0.015625,0.0,0.0,0.0,0.0,0.0,0.0,0.0,0.0,0.0,0.0,0.0,0.0,0.0,0.0,0.0,0.0,0.009630818619582664,0.0014792899408284023,0.0,,0.0,0.0,0.0,0.0,0.0,0.0,0.0,,0.0,0.0,0.0,0.0,,0.0,0.0,0.09090909090909091,0.0,0.0,0.003205128205128205,0.0,0.0,0.05,0.047619047619047616,0.0,0.0,0.0,0.003703703703703704,0.0,0.0,0.0,0.0,0.0,0.0,0.0,0.0,0.0,0.0,0.0,0.0,0.0,0.0,0.09090909090909091,0.0,0.0,0.0,,0.0,0.0,0.0,0.0,0.0,0.0,0.0,0.0,0.0,0.0,0.0,0.0,0.0,,0.0,0.0,0.0,0.002457002457002457,0.0,0.0,,0.0,0.0,0.0,0.0,0.0,0.0,0.0,0.0,0.0,0.0,0.0,0.00684931506849315,0.0,0.0,0.0,0.0,0.0,0.0,0.0,0.014814814814814815,0.0,0.024263431542461005,0.0,0.0,0.0,0.0,0.0,0.0,0.0,0.0,0.034482758620689655,0.0,0.0,0.0,0.0,0.0,0.0,0.009523809523809525,0.0,0.0,0.0,0.0,0.0,0.0,0.0,0.0,0.0,0.0,0.008928571428571428,0.0,0.0,0.0,0.0,0.0,1.0,0.0,0.0,0.0,0.14285714285714285,0.0,0.0,0.003105590062111801,0.0,0.0,,0.0,0.0,0.0,0.014492753623188406,0.02040816326530612,0.0,0.0,0.02040816326530612,0.0059665871121718375,0.0,0.5,0.0,0.0,0.0,0.0,0.0,0.006535947712418301,,0.0,0.010101010101010102,0.008695652173913044,0.0,0.0,0.0,0.0,0.0,0.05555555555555555,,0.0,0.0,0.0,0.09375,0.0,0.0,0.0,0.5,0.14285714285714285,0.010752688172043012,0.0,0.0,0.0,0.05263157894736842,0.0,0.0,0.0,0.0,0.008547008547008548,0.0,0.03864734299516908,0.011904761904761904,0.05555555555555555,0.2,0.0,0.14285714285714285,0.0,0.0,0.0,0.005649717514124294,0.09871244635193133,0.0,0.0,0.0,0.0,0.0,0.0,0.0,0.00625,0.02912621359223301,0.5,0.02631578947368421,0.0,,0.0,0.0,0.030303030303030304,,0.05,0.0,0.2,0.0,0.0,0.0,,0.0,0.0,0.004761904761904762,0.0,0.0,0.02702702702702703,0.041666666666666664,0.0,0.0,0.0,0.0,0.0,,0.0,0.0,0.0,,0.043478260869565216,0.0,0.0
2015-12-21,0.0,0.0,0.017543859649122806,0.5,0.0,,0.0,0.5,0.0,,0.0,0.0,0.0,,0.0,0.0,0.0,0.021739130434782608,0.0,0.07692307692307693,0.0009737098344693282,0.0,0.007692307692307693,0.0,0.0,0.0,0.0,0.3333333333333333,,0.25,0.0,0.0,0.0,0.08333333333333333,0.0,0.0,0.0,0.0,0.0,0.07142857142857142,0.0033444816053511705,0.3333333333333333,0.0,0.0,0.0,0.0,0.0,0.0,0.05263157894736842,0.0,0.0,0.06779661016949153,0.0,0.14285714285714285,0.0,0.0,0.0,0.0,0.0,0.0,0.027777777777777776,0.0,0.0,,0.02127659574468085,0.0,0.00641025641025641,0.015151515151515152,0.0,0.0,0.0,0.0,0.0,0.0,0.0,0.0,0.0,0.0,0.0,0.0,0.0049504950495049506,0.0,0.0,0.0,0.015772870662460567,0.010115606936416185,0.0,,0.0,0.0,0.0,0.010452961672473868,0.0,0.0,0.0,,0.0,0.0,0.0,0.02857142857142857,,0.0,0.0,0.36363636363636365,0.0,0.0,0.015015015015015015,0.0,0.0,0.0,0.05555555555555555,0.0,0.0,0.0,0.0076045627376425855,0.0,0.0,0.0,0.0,0.0,0.0,0.0,0.25,0.0,0.0,0.0,0.0,0.0,0.0,0.09090909090909091,0.0,0.0,0.0,,0.0,0.0,0.0,0.0,0.0,0.0,0.0,0.0,0.0,0.012121212121212121,0.10526315789473684,0.0,0.0,,0.0,0.021052631578947368,0.0,0.00228310502283105,0.0,0.0,,0.0,0.0,0.0,0.0,0.0,0.0,0.0,0.0,0.15,0.047619047619047616,0.0,0.006944444444444444,0.0,0.6666666666666666,0.0,0.0,0.0,0.0,0.0,0.012345679012345678,0.0,0.026533996683250415,0.0,0.0,0.0,0.0,0.0,0.0,0.0,0.0,0.0,0.0,0.0,0.0,0.0,0.0,0.0,0.02702702702702703,0.005390835579514825,0.0,0.0,0.3333333333333333,0.0,0.0,0.3333333333333333,0.0,0.0,0.0,0.013392857142857142,0.0,0.0,0.0,0.0,0.0,1.0,0.0,0.0,0.0,0.14285714285714285,0.0,0.0,0.006329113924050633,0.008620689655172414,0.0,,0.0,0.0,0.021897810218978103,0.014705882352941176,0.019230769230769232,0.03636363636363636,0.0,0.09259259259259259,0.006936416184971098,0.0,0.0,0.0,0.0,0.0,0.0,0.010416666666666666,0.03164556962025317,,0.0,0.0,0.02109704641350211,0.0,0.5,0.0,0.0,0.0,0.0,0.0,0.1,0.0,0.0,0.125,0.0,0.0,0.0,0.5,0.2857142857142857,0.020833333333333332,0.0,0.0,0.0,0.1,0.0,0.0,0.0,0.0,0.008849557522123894,0.0,0.032407407407407406,0.011627906976744186,0.0,0.2857142857142857,0.0,0.2857142857142857,0.0,0.0,0.0,0.013623978201634877,0.2,0.0,0.0,0.0,0.0,0.008849557522123894,0.0,0.0,0.012578616352201259,0.035398230088495575,0.5,0.064,0.0,,0.0,0.0,0.013513513513513514,,0.0,0.0,1.0,0.0,0.5,0.0,,0.0,0.0,0.0,0.0,0.1111111111111111,0.02631578947368421,0.041666666666666664,0.125,0.0,0.0,0.0,0.0,0.0,0.0,0.0,0.0,,0.0,0.0,0.0
2015-12-22,0.0,0.0,0.017857142857142856,0.0,0.0,,0.0,0.25,0.0,,0.0,0.0,0.0,,0.037037037037037035,0.0,0.0,0.022727272727272728,0.0,0.15384615384615385,0.007759456838021339,0.0,0.007692307692307693,0.125,0.0,0.0,0.0,0.3333333333333333,,0.0,0.0,0.0,0.0,0.0,0.0,0.0,0.0,0.0,0.007194244604316547,0.047619047619047616,0.0033333333333333335,0.3333333333333333,0.0,0.0,0.0,0.0,0.0,0.0,0.05263157894736842,0.0,0.020833333333333332,0.05084745762711865,0.0037174721189591076,0.15384615384615385,0.0,0.0,0.0,0.5,0.0,0.0,0.030303030303030304,0.0,0.0,,0.010526315789473684,0.0,0.006430868167202572,0.014705882352941176,0.0,0.0,0.0,0.043478260869565216,0.25,0.0,0.0,0.0,0.0,0.0,0.0,0.0,0.01485148514851485,0.0,0.3333333333333333,0.009433962264150943,0.009523809523809525,0.004366812227074236,0.0,,0.0,0.16666666666666666,0.0,0.0,1.0,0.0,0.0,,0.0,0.0,0.0,0.0,,0.0,0.0,0.18181818181818182,0.1,0.0,0.04451038575667656,0.0,0.0,0.0,0.05555555555555555,0.0,0.16666666666666666,0.16666666666666666,0.007575757575757576,0.0,0.0,0.0,0.0,0.0,0.0,0.0,0.0,0.0,0.09090909090909091,0.0,0.0,0.0,0.0,0.0,0.0,0.0,0.0,,0.0,0.0,0.0,0.0,0.2857142857142857,0.0,0.0,0.007462686567164179,0.0,0.012121212121212121,0.0,0.0,0.0,,0.0,0.0,0.0,0.004618937644341801,0.0,0.0,,0.0,0.0,0.03571428571428571,0.0,0.0,0.0,0.0,0.0,0.1,0.047619047619047616,0.0,0.007042253521126761,0.0,0.5,0.0,0.0,0.0,0.0,0.0,0.009876543209876543,0.0,0.016863406408094434,0.0,0.0,0.0,0.0,0.0,0.0,0.0,0.0,0.034482758620689655,0.0,0.0,0.0,0.0,0.0,0.0,0.009174311926605505,0.0026954177897574125,0.0,0.0,0.3333333333333333,0.0,0.0,0.0,0.0,0.0,0.0,0.013513513513513514,0.011764705882352941,0.0,0.0,0.0,0.0,1.0,0.0,0.0,0.0,0.14285714285714285,0.0,0.0,0.006430868167202572,0.008403361344537815,0.0,,0.0,0.0,0.0,0.0,0.019230769230769232,0.03773584905660377,0.0,0.037037037037037035,0.00805523590333717,0.0,0.0,,0.0,0.5,0.0,0.0,0.0,,0.0,0.004901960784313725,0.010548523206751054,0.0,0.0,0.0,0.014492753623188406,0.0,0.0,,0.0,0.0,0.0,0.0,0.0,0.0625,0.0,0.5,0.0,0.0,0.0,0.023809523809523808,0.0,0.05,0.6666666666666666,0.0,0.0,0.0,0.008771929824561403,0.3333333333333333,0.013953488372093023,0.011627906976744186,0.0,0.2857142857142857,0.0,0.14285714285714285,0.0,0.0,0.0,0.00546448087431694,0.037267080745341616,0.05555555555555555,0.0,0.0,0.0,0.0,0.0,0.01098901098901099,0.006369426751592357,0.008849557522123894,0.0,0.024193548387096774,0.4,,0.0,0.0,0.02027027027027027,,0.0,0.0,0.4,0.0,0.0,0.0,,0.0,0.0,0.0,0.0,0.1,0.02564102564102564,0.02127659574468085,0.0,0.0,0.0,0.0,0.05,,0.0,0.06666666666666667,0.0,,0.0,0.0,0.0
2015-12-23,0.0,0.0,0.0,0.0,0.0,,0.0,0.0,0.0,,0.0,0.0,0.14285714285714285,,0.037037037037037035,0.0,0.0,0.0,0.0,0.23076923076923078,0.018393030009680542,0.1111111111111111,0.0,0.125,0.5,0.0,0.03278688524590164,0.0,,0.0,0.0,0.0,0.05263157894736842,0.0,0.0,0.0,0.0,0.125,0.03546099290780142,0.046511627906976744,0.012944983818770227,0.0,0.0,0.0,0.0,0.0,0.0,0.0,0.0,0.21428571428571427,0.0425531914893617,0.015625,0.006872852233676976,0.0,0.0,0.0625,0.0,0.0,0.0,0.0,0.07894736842105263,0.0,0.0,,0.05263157894736842,0.0,0.015822784810126583,0.04225352112676056,0.0,0.5,0.0,0.045454545454545456,0.0,0.0,0.0,0.0,0.0,0.07407407407407407,0.0,0.0,0.0,0.043478260869565216,0.3333333333333333,0.06103286384976526,0.010954616588419406,0.005805515239477504,0.0,,0.2,0.2,0.0,0.017123287671232876,0.0,0.0,0.0,,0.09090909090909091,0.0,0.25,0.0,,0.0,0.0,0.0,0.0,0.0,0.12202380952380952,0.0,0.0,0.0,0.0,0.0,0.0,0.16666666666666666,0.007352941176470588,0.0,0.0,0.0,0.0,0.0,0.0,0.12903225806451613,0.0,0.0,0.0,0.0,0.0,0.0,0.0,0.0,0.037037037037037035,0.0,0.0,,0.0,0.0,0.25,0.0,0.25,0.3333333333333333,0.0,0.0,0.0,0.005917159763313609,0.05263157894736842,0.0,0.0,,0.0,0.010416666666666666,0.0,0.0,0.0,0.0,,0.0,0.0,0.0,0.0,0.0,0.0,0.0,0.0,0.15789473684210525,0.0,0.03278688524590164,0.006872852233676976,0.0,0.0,0.0,0.0,0.0,0.0,0.0,0.0,0.0,0.01020408163265306,0.0,0.0,0.0,0.0,0.0,0.1386861313868613,0.07692307692307693,0.0,0.0,0.0,0.0,0.0,0.0,0.0,0.0,0.017241379310344827,0.002638522427440633,0.1111111111111111,0.007633587786259542,0.0,0.027777777777777776,0.0,0.0,0.0,0.0,0.0,0.008928571428571428,0.058823529411764705,0.0,0.0,0.0,0.0,1.0,0.0,0.0,0.0,0.0,0.0,0.0,0.018808777429467086,0.01652892561983471,0.0,,0.1111111111111111,0.0,0.0,0.0,0.0,0.03333333333333333,0.0,0.0,0.011547344110854504,0.08823529411764706,0.0,0.0,0.0,0.5,0.0,0.030612244897959183,0.012578616352201259,,0.0,0.014705882352941176,0.008438818565400843,0.0,0.0,0.0,0.013888888888888888,0.0,0.0,0.0,0.0,0.0,0.0,0.03225806451612903,0.07692307692307693,0.1875,0.0,0.0,0.0,0.03125,0.0,0.06818181818181818,0.0,0.0,0.16666666666666666,0.0,0.0,0.25,0.008695652173913044,0.0,0.00881057268722467,0.0,0.1111111111111111,0.0,0.0,0.0,0.0,0.0,0.029411764705882353,0.01358695652173913,0.010224948875255624,0.05263157894736842,0.0,0.0,0.0,0.00847457627118644,0.2,0.021505376344086023,0.012861736334405145,0.00909090909090909,0.0,0.007874015748031496,0.2,,0.0,0.0,0.02666666666666667,,0.0625,0.0,0.0,0.0,0.0,0.1,,0.125,0.0,0.013574660633484163,0.0,0.0,0.0,0.038461538461538464,0.0,0.0,0.0,0.0,0.05555555555555555,0.0,0.0,0.0,0.0,,0.0,0.0,0.0
2015-12-24,0.0,0.0,0.0,0.0,0.0,,0.0,0.0,0.0,0.0,0.0,0.2857142857142857,0.16666666666666666,,0.05263157894736842,0.0,0.0,0.0,0.5,0.23809523809523808,0.2876712328767123,0.2,0.02654867256637168,0.3333333333333333,0.0,0.0,0.02,0.0,,0.0,0.0,0.0,0.10714285714285714,0.1,0.0,0.0,0.0,0.2857142857142857,0.05660377358490566,0.0,0.02100840336134454,1.0,1.0,0.0,0.5,0.0,0.0,0.0,0.4666666666666667,0.0,0.046511627906976744,0.0,0.0410958904109589,0.0,0.1,0.16666666666666666,0.0,0.0,0.25,0.2,0.07692307692307693,0.0,0.0,,0.041666666666666664,0.0,0.018726591760299626,0.057692307692307696,0.0,0.5,0.0,0.0,0.0,0.0,0.0,0.5,1.0,0.027777777777777776,0.0,0.0,0.012121212121212121,0.0,0.0,0.050314465408805034,0.006172839506172839,0.014634146341463415,0.6666666666666666,,0.0,0.0,0.05263157894736842,0.04568527918781726,0.0,0.0,0.2857142857142857,,0.0,0.0,0.0,0.0,,0.0,0.0,0.0,0.14285714285714285,0.5,0.02127659574468085,0.25,0.0,0.06666666666666667,0.0,0.3333333333333333,0.0,0.0,0.0371900826446281,0.08333333333333333,0.0,0.0,0.0,0.0,0.0,0.0,0.0,0.0,0.0,0.42857142857142855,0.2857142857142857,0.0,0.0,0.2,0.041666666666666664,0.125,0.21428571428571427,,0.0,0.5,0.0,0.0,0.16666666666666666,0.0,0.0,0.007575757575757576,0.0,0.023809523809523808,0.1875,0.0,0.125,,0.0,0.02857142857142857,0.0,0.011695906432748537,0.05,0.0,,0.4,0.0,0.029411764705882353,0.0,0.0,0.0,0.0,0.0,0.0,0.0625,0.08333333333333333,0.015748031496062992,0.0,0.0,0.0,0.0,0.0,0.0,0.0,0.0028169014084507044,0.0,0.014462809917355372,0.0,0.0,0.0,0.09090909090909091,0.3333333333333333,0.03349282296650718,0.0,0.03125,0.037037037037037035,0.25,0.25,0.0,0.0,0.0,0.0,0.01098901098901099,0.034055727554179564,0.2857142857142857,0.015384615384615385,0.0,0.16129032258064516,0.0,0.0,0.16666666666666666,0.0,0.0,0.028169014084507043,0.014285714285714285,0.0,0.5,0.0,0.16666666666666666,1.0,0.3,0.0,0.5,0.0,0.1111111111111111,0.0,0.008298755186721992,0.03260869565217391,0.16666666666666666,,0.2222222222222222,0.6666666666666666,0.008771929824561403,0.03125,0.022727272727272728,0.0975609756097561,0.0,0.0,0.008064516129032258,0.0,0.0,0.0,0.0,0.0,0.0,0.08333333333333333,0.007407407407407408,,0.3333333333333333,0.018292682926829267,0.004796163069544364,0.09090909090909091,0.0,0.0,0.017543859649122806,0.0,0.07142857142857142,,0.0,0.0,0.0,0.0,0.037037037037037035,0.0,0.1111111111111111,0.0,0.0,0.05405405405405406,0.0,0.2,0.0,0.0,0.5,0.14285714285714285,0.0,0.0,0.0392156862745098,0.3333333333333333,0.0,0.014084507042253521,0.11764705882352941,0.0,0.0,0.0,0.0,0.0,0.1,0.0031746031746031746,0.008287292817679558,0.0625,0.2,0.1875,0.0,0.0,0.0,0.056179775280898875,0.00847457627118644,0.011627906976744186,0.0,0.010416666666666666,0.0,,0.0,0.08333333333333333,0.02702702702702703,,0.125,0.0,0.75,0.0,0.0,0.0625,,0.3333333333333333,0.0,0.0449438202247191,0.5,0.0,0.03125,0.0,0.0,0.0,0.3333333333333333,0.0,0.13333333333333333,,0.5,0.23076923076923078,0.0,,0.05555555555555555,0.0,0.0
2015-12-25,0.0,0.0,0.0,0.0,0.0,,0.0,0.0,0.0,,,0.0,0.0,,0.0,0.0,0.0,0.0,0.0,0.5714285714285714,0.017142857142857144,0.0,0.0,0.0,0.0,0.0,0.0,,,0.0,0.0,,0.16,0.0,0.0,0.0,0.0,0.0,0.0,0.0,0.0044444444444444444,0.0,0.0,0.0,0.0,0.0,0.0,0.0,0.0,0.0,0.0,0.0,0.013574660633484163,0.08333333333333333,0.0,0.0,0.0,,0.0,0.0,0.0,0.5454545454545454,0.0,,0.0,0.0,0.0,0.0,0.0,0.0,0.0,0.07142857142857142,0.0,0.0,0.125,0.0,,0.02857142857142857,0.0,0.0,0.013245033112582781,0.0,0.0,0.013513513513513514,0.010548523206751054,0.0109375,0.0,,0.0,0.2,0.0,0.010471204188481676,0.0,0.0,0.0,,0.8,0.0,0.0,0.0,,0.0,0.0,0.0,0.0,0.0,0.008968609865470852,0.25,0.0,0.0,0.0,0.0,0.0,0.0,0.00823045267489712,0.09090909090909091,0.0,0.0,0.0,0.0,0.0,0.0,0.0,0.0,0.1111111111111111,0.0,0.0,0.0,0.0,0.125,0.0,0.125,0.07692307692307693,,0.0,0.0,0.3333333333333333,0.0,0.16666666666666666,0.0,0.0,0.0,0.0,0.016666666666666666,0.0,0.0,0.2,,0.0,0.0,0.0,0.040123456790123455,0.05555555555555555,0.0,,0.0,0.0,0.01694915254237288,0.0,0.0,0.0,0.0,0.0,0.07142857142857142,0.0,0.0,0.012048192771084338,0.0,0.0,0.0,0.0,0.0,0.0,0.0,0.0029498525073746312,0.0,0.018789144050104383,0.0,0.0,0.0,0.14285714285714285,0.0,0.04081632653061224,0.0,0.0,0.045454545454545456,0.0,0.0,0.0,0.0,0.0,0.0,0.0,0.0,0.0,0.0,0.0,0.0,0.0,0.0,0.0,0.0,0.08333333333333333,0.018867924528301886,0.0,0.0,0.0,0.0,0.0,0.0,0.0,0.0,0.0,0.0,0.0,0.0,0.037914691943127965,0.011764705882352941,0.0,,0.1111111111111111,0.0,0.01,0.0,0.0,0.023255813953488372,,0.0,0.013657056145675266,0.0,0.0,,,0.0,0.0,0.025,0.0,,0.0,0.013422818791946308,0.007633587786259542,0.0,0.0,0.0,0.018867924528301886,0.0,0.13333333333333333,0.0,0.0,0.0,,0.0,0.0,0.0,0.0,0.0,0.0,0.0,0.0,0.0,0.0,0.0,0.0,0.05,0.0,0.0,0.009708737864077669,0.0,0.017241379310344827,0.015625,0.0,0.0,0.0,0.0,0.0,0.0,0.0,0.006688963210702341,0.010582010582010581,0.0,0.0,0.0,0.0,0.0,0.0,0.03260869565217391,0.0,0.0,0.0,0.010752688172043012,0.0,,0.0,0.0,0.009708737864077669,,0.15789473684210525,0.0,0.25,0.0,0.0,0.07142857142857142,,0.0,0.0,0.00558659217877095,0.0,0.0,0.0,0.0,0.0,0.0,0.0,0.0,0.0,0.0,0.0,0.16666666666666666,,,0.0,,0.0
2015-12-26,0.0,0.3333333333333333,0.07017543859649122,0.0,0.0,,0.4,0.0,0.0,,0.0,0.1111111111111111,0.16666666666666666,,0.0,0.0,0.3,0.0,0.0,0.07407407407407407,0.011351909184726523,0.0,0.04132231404958678,0.0,0.0,0.0,0.019230769230769232,0.0,,0.0,0.0,,0.029411764705882353,0.0,0.0,0.0,0.0,0.0,0.038461538461538464,0.05128205128205128,0.0,0.3333333333333333,0.0,0.0,0.0,0.0,0.0,0.5,0.05263157894736842,0.0,0.0,0.0,0.007547169811320755,0.05263157894736842,0.0,0.0625,0.0,0.0,0.0,0.0,0.0,0.0,0.0,,0.012195121951219513,0.2,0.011406844106463879,0.0,0.2,0.0,0.0,0.05263157894736842,0.0,0.0,0.15384615384615385,0.0,0.0,0.03773584905660377,0.0,0.0,0.21468926553672316,0.0,0.0,0.0,0.023450586264656615,0.2664624808575804,0.0,,0.0,0.0,0.0,0.0136986301369863,0.0,0.0,0.0,,0.13333333333333333,0.0,0.0,0.06060606060606061,,0.0,0.0,0.0,0.0,0.0,0.014760147601476014,0.0,0.0,0.05,0.0,0.0,0.0,0.0,0.007220216606498195,0.0,0.0,0.2,0.0,0.0,0.0,0.0,0.0,0.0,0.0,0.0,0.0,0.0,0.0,0.0,0.04,0.0,0.0,,0.0,0.0,0.2,0.0,0.0,0.0,0.0,0.0,0.0,0.03821656050955414,0.0,0.0,0.0,,0.0,0.0,0.0,0.02544529262086514,0.043478260869565216,0.0,,0.0,0.0,0.0,0.0,0.0,0.0,0.5,0.0,0.045454545454545456,0.0625,0.017857142857142856,0.007462686567164179,0.0,0.0,0.0,0.02702702702702703,0.0,0.0,0.0,0.01038961038961039,0.25,0.012367491166077738,0.07142857142857142,0.0,0.0,0.0,0.16666666666666666,0.008771929824561403,0.0,0.0,0.10714285714285714,0.0,0.0,0.0,0.0,0.14285714285714285,0.0,0.037383177570093455,0.01288659793814433,0.125,0.020242914979757085,0.0,0.027777777777777776,0.2,0.0,0.2857142857142857,0.2,0.0,0.0091324200913242,0.0,0.5,0.0,0.14285714285714285,0.125,0.0,0.07142857142857142,0.0,0.0,0.0,0.0,0.0,0.0032679738562091504,0.027522935779816515,0.0,,0.0,0.0,0.0078125,0.0,0.043478260869565216,0.02,0.0,0.04081632653061224,0.022636484687083888,0.07142857142857142,0.0,,0.0,0.0,0.0,0.022222222222222223,0.006756756756756757,,0.0,0.017142857142857144,0.011111111111111112,0.07692307692307693,0.0,0.0,0.0,0.0,0.11764705882352941,,0.0,0.0,0.0,0.0,0.0,0.0,0.0,0.0,0.0,0.023529411764705882,0.0,0.02857142857142857,0.0,0.0,0.16666666666666666,0.0,0.3333333333333333,0.0,0.0,0.3333333333333333,0.024154589371980676,0.06896551724137931,0.1,0.0,0.0,0.0,0.0,0.0,0.0,0.0058309037900874635,0.009070294784580499,0.1111111111111111,0.0,0.10526315789473684,0.0,0.020202020202020204,0.4,0.009708737864077669,0.006493506493506494,0.0,0.0,0.020202020202020204,0.0,,0.0,0.0,0.028368794326241134,,0.043478260869565216,0.0,0.0,0.0,0.0,0.0,,0.0,0.0,0.009259259259259259,0.0,0.1111111111111111,0.05263157894736842,0.038461538461538464,0.0,0.0,0.5,0.2,0.0,0.0,0.0,0.13333333333333333,0.0,,0.14285714285714285,0.0,0.2
2015-12-27,0.0,0.625,0.11475409836065574,0.0,0.0,,0.4,0.0,0.0,1.0,0.0,0.36363636363636365,0.0,,0.0,0.0,1.0,0.022727272727272728,0.0,0.27586206896551724,0.014395393474088292,0.0,0.16030534351145037,0.0,0.0,0.16666666666666666,0.01694915254237288,0.0,,0.0,0.0,0.0,0.1282051282051282,0.0,0.0,0.0,0.0,0.25,0.05555555555555555,0.023255813953488372,0.0036101083032490976,0.6666666666666666,0.0,0.0,0.0,0.42857142857142855,0.0,0.0,0.42857142857142855,0.0,0.021739130434782608,0.015873015873015872,0.030927835051546393,0.0,0.2857142857142857,0.0,0.0,0.0,0.1,0.0,0.1,0.05555555555555555,0.5,,0.0625,0.8,0.013377926421404682,0.0684931506849315,0.0,0.0,0.0,0.13043478260869565,0.0,0.0,0.5454545454545454,0.14285714285714285,0.0,0.12903225806451613,0.0,0.0,0.1836734693877551,0.045454545454545456,0.0,0.08421052631578947,0.03484848484848485,0.4435374149659864,0.0,,0.0,0.3333333333333333,0.07142857142857142,0.023411371237458192,0.0,0.5,0.08333333333333333,,0.23076923076923078,0.0,0.0,0.4166666666666667,,0.0,0.0,0.09090909090909091,0.0,0.5,0.044444444444444446,0.0,0.0,0.05,0.19047619047619047,0.25,0.0,0.0,0.03859649122807018,0.0,0.0,0.6666666666666666,0.13333333333333333,0.0,1.0,0.0,0.0,0.0,0.25,0.0,0.125,0.0,0.5,0.5454545454545454,0.1,0.09090909090909091,0.05263157894736842,,0.0,0.0,0.25,0.0,0.35714285714285715,0.0,0.0,0.007352941176470588,1.0,0.20710059171597633,0.0,0.2222222222222222,0.14285714285714285,,0.0,0.030927835051546393,0.0,0.38095238095238093,0.25925925925925924,0.0,,0.0,0.0,0.04878048780487805,0.0,0.0,0.0625,0.0,0.0,0.23809523809523808,0.2857142857142857,0.034482758620689655,0.01730103806228374,0.5,0.0,0.0,0.0,0.16666666666666666,0.0,0.0,0.04071246819338423,1.0,0.03236797274275979,1.0,0.0,0.8333333333333334,0.08333333333333333,0.46153846153846156,0.028925619834710745,0.0,0.0,0.3225806451612903,0.125,0.5,0.0,0.0,1.0,0.0,0.08695652173913043,0.028205128205128206,0.0,0.011406844106463879,0.0,0.11904761904761904,0.8571428571428571,0.0,0.2222222222222222,0.2,0.058823529411764705,0.05263157894736842,0.05952380952380952,0.5,0.0,0.0,0.25,0.0,0.3125,0.0,0.0,0.0,0.08695652173913043,0.0,0.027950310559006212,0.12195121951219512,0.1111111111111111,,0.0,0.25,0.0,0.014492753623188406,0.34615384615384615,0.07142857142857142,0.0,0.05357142857142857,0.06294536817102138,0.06060606060606061,0.0,0.0,0.0,0.0,0.0,0.06451612903225806,0.031446540880503145,,0.3333333333333333,0.04,0.027600849256900213,0.07142857142857142,0.0,0.0,0.08571428571428572,0.0,0.21052631578947367,,0.0,0.0,0.0,0.06060606060606061,0.0,0.0,0.0,0.0,0.14285714285714285,0.052083333333333336,0.0,0.047619047619047616,0.0,0.024390243902439025,0.3333333333333333,0.0,1.0,0.0,0.024390243902439025,0.6666666666666666,0.039647577092511016,0.17045454545454544,0.0,0.0625,0.0,0.14285714285714285,0.0,0.0,0.058823529411764705,0.022222222222222223,0.04430379746835443,0.2631578947368421,0.0,0.3684210526315789,0.0,0.025423728813559324,0.6,0.00980392156862745,0.0219435736677116,0.04504504504504504,0.0,0.07627118644067797,0.4,,1.0,0.06666666666666667,0.08108108108108109,,0.05,0.0,0.0,0.0,0.0,0.0,,0.125,0.0,0.035398230088495575,0.0,0.1,0.20930232558139536,0.10909090909090909,0.0,0.0,0.3333333333333333,0.6,0.19047619047619047,,0.0,0.3333333333333333,0.0,,0.25,0.0,0.0
2015-12-28,0.5,0.5714285714285714,0.10714285714285714,0.0,0.0,,0.0,0.25,0.0,,0.0,0.1,0.2857142857142857,,0.12,0.5,0.5,0.043478260869565216,0.5,0.37037037037037035,0.03012633624878523,0.5714285714285714,0.09230769230769231,0.0,0.5,0.6666666666666666,0.08771929824561403,0.0,,0.0,0.0,0.0,0.22857142857142856,0.0,0.1111111111111111,0.0,0.0,0.5,0.15714285714285714,0.023809523809523808,0.06451612903225806,0.3333333333333333,0.0,0.0,0.0,0.2857142857142857,0.0,0.5,0.10526315789473684,0.3076923076923077,0.14893617021276595,0.03389830508474576,0.07865168539325842,0.06666666666666667,0.15384615384615385,0.1875,0.0,0.0,0.1,0.4,0.11764705882352941,0.5333333333333333,0.0,,0.16304347826086957,0.0,0.05167173252279635,0.18181818181818182,0.7142857142857143,0.5,0.0,0.18181818181818182,0.5,0.0,0.18181818181818182,0.14285714285714285,0.0,0.21568627450980393,1.0,0.0,0.10891089108910891,0.22727272727272727,1.0,0.11442786069651742,0.09800918836140889,0.16642754662840745,0.0,,0.4,0.0,0.48148148148148145,0.2613240418118467,0.0,0.5,0.0,,0.36363636363636365,0.0,0.25,0.02857142857142857,,1.0,0.0,0.0,0.4,0.0,0.09422492401215805,0.0,0.0,0.2777777777777778,0.0,0.0,0.16666666666666666,0.0,0.053231939163498096,0.35714285714285715,0.6,0.0,0.46153846153846156,0.0,0.0,0.0,0.0,0.0,0.0,0.0,0.2222222222222222,0.4166666666666667,0.0,0.18181818181818182,0.4642857142857143,0.08333333333333333,0.14285714285714285,,0.0,0.0,0.3333333333333333,0.0,0.0,0.0,0.0,0.0072992700729927005,1.0,0.048484848484848485,0.15789473684210525,0.0,0.08333333333333333,,0.0,0.08333333333333333,0.0,0.08314087759815242,0.6538461538461539,0.0,,0.0,0.0,0.20238095238095238,0.0,0.0,0.0,0.5,0.0,0.1,0.09523809523809523,0.13333333333333333,0.027777777777777776,0.0,0.0,0.0,0.02857142857142857,0.0,0.2857142857142857,0.0,0.06633906633906633,0.5,0.0664451827242525,1.0,0.0,0.0,0.23076923076923078,0.09090909090909091,0.12195121951219512,0.0,0.029411764705882353,0.20689655172413793,0.6666666666666666,0.16666666666666666,0.6,0.0,0.3,0.8,0.22935779816513763,0.07795698924731183,0.5555555555555556,0.7689075630252101,0.0,0.21621621621621623,0.5,0.0,0.1111111111111111,0.4,0.17647058823529413,0.06756756756756757,0.49411764705882355,1.0,0.0,0.5555555555555556,0.1111111111111111,0.0,0.0625,0.0,0.0,0.0,0.5416666666666666,0.0,0.09584664536741214,0.11206896551724138,0.0,,0.0,0.0,0.04411764705882353,0.029411764705882353,0.3584905660377358,0.2,0.0,0.018518518518518517,0.7388392857142857,0.17857142857142858,0.0,1.0,0.0,1.0,0.0,0.02040816326530612,0.07547169811320754,,0.0,0.10606060606060606,0.03991596638655462,0.7142857142857143,0.0,0.0,0.15942028985507245,0.5,0.17647058823529413,0.0,0.0,0.0,0.0,0.0625,0.19444444444444445,0.14285714285714285,0.2,0.0,0.0,0.14583333333333334,0.3333333333333333,0.2619047619047619,0.0,0.075,0.16666666666666666,0.13043478260869565,1.0,0.75,0.09565217391304348,0.3333333333333333,0.09216589861751152,0.1566265060240964,0.11764705882352941,0.0,0.46153846153846156,0.0,0.0,0.3333333333333333,0.2857142857142857,0.04632152588555858,0.08811475409836066,0.1111111111111111,0.0,0.15789473684210525,0.0,0.07079646017699115,0.6,0.02127659574468085,0.03459119496855346,0.07964601769911504,0.0,0.12,0.4,,1.0,0.14285714285714285,0.12751677852348994,,0.058823529411764705,0.0,0.0,1.0,0.0,0.1111111111111111,,0.125,0.6666666666666666,0.047619047619047616,0.0,0.3333333333333333,0.18421052631578946,0.125,0.625,0.0,0.3333333333333333,0.2,0.15789473684210525,0.0,0.0,0.13333333333333333,0.0,,0.38461538461538464,0.0,0.0
2015-12-29,0.0,0.0,0.10526315789473684,0.0,0.0,,0.0,0.25,0.0,,0.0,0.0,0.0,,0.2,0.5,0.0,0.045454545454545456,1.0,0.07692307692307693,0.02237354085603113,0.25,0.0703125,0.125,0.0,0.14285714285714285,0.08620689655172414,0.3333333333333333,,0.0,1.0,0.0,0.058823529411764705,0.0,0.0,0.0,0.0,0.0,0.09420289855072464,0.023809523809523808,0.25806451612903225,0.0,0.0,0.2,0.0,0.0,0.0,0.5,0.0,0.35714285714285715,0.125,0.0,0.0749063670411985,0.07142857142857142,0.07692307692307693,0.1875,0.0,0.0,0.0,0.2,0.09090909090909091,0.05555555555555555,0.5,,0.14285714285714285,0.0,0.01929260450160772,0.07575757575757576,0.0,0.0,0.0,0.045454545454545456,0.0,0.0,0.0,0.0,0.0,0.0784313725490196,0.25,0.0,0.034653465346534656,0.22727272727272727,0.0,0.08080808080808081,0.04716981132075472,0.05224963715529753,0.0,,0.2,0.0,0.24,0.03793103448275862,0.0,0.5,0.0,,0.09090909090909091,0.0,0.25,0.029411764705882353,,0.5,0.0,0.0,0.2,0.0,0.1641337386018237,0.0,0.0,0.05555555555555555,0.0,0.0,0.0,0.0,0.053231939163498096,0.2857142857142857,0.1,0.0,0.3076923076923077,0.0,0.0,0.0,0.0,0.0,0.0,0.125,0.0,0.3333333333333333,0.0,0.0,0.1724137931034483,0.18181818181818182,0.047619047619047616,,0.0,0.0,0.0,0.0,0.0,0.0,0.0,0.007462686567164179,1.0,0.01818181818181818,0.05263157894736842,0.0,0.0,,0.0,0.030612244897959183,0.0,0.04176334106728538,0.0,0.0,,0.0,0.5,0.08045977011494253,0.0,0.0,0.15384615384615385,0.0,0.0,0.05,0.0,0.03333333333333333,0.03180212014134275,0.0,0.0,0.0,0.0,0.0,0.16666666666666666,0.0,0.022113022113022112,0.0,0.050761421319796954,0.5,0.0,0.0,0.14285714285714285,0.0,0.09053497942386832,0.0,0.029411764705882353,0.13793103448275862,0.0,0.0,0.2,0.0,0.0,0.16666666666666666,0.02727272727272727,0.0456989247311828,0.1111111111111111,0.04602510460251046,0.0,0.16216216216216217,0.0,0.0,0.0,0.0,0.0625,0.04504504504504504,0.13953488372093023,0.0,0.0,0.0,0.0,0.0,0.06666666666666667,0.0,0.0,0.0,0.20833333333333334,0.0,0.038338658146964855,0.058333333333333334,0.0,,0.0,0.0,0.058823529411764705,0.0,0.05660377358490566,0.09259259259259259,0.0,0.05555555555555555,0.07151095732410612,0.1,0.0,0.0,0.0,0.5,0.0,0.1414141414141414,0.03821656050955414,,0.0,0.05555555555555555,0.023109243697478993,0.0,0.0,0.0,0.08695652173913043,0.5,0.0,,0.0,0.0,0.0,0.0625,0.1111111111111111,0.2857142857142857,0.1,0.0,0.0,0.08247422680412371,0.3333333333333333,0.0975609756097561,0.0,0.075,0.16666666666666666,0.17391304347826086,1.0,0.25,0.06896551724137931,0.3333333333333333,0.037037037037037035,0.07142857142857142,0.11764705882352941,0.0,0.5384615384615384,0.0,0.0,0.3333333333333333,0.06896551724137931,0.0326975476839237,0.053497942386831275,0.05555555555555555,0.0,0.0,0.0,0.009009009009009009,0.0,0.0,0.025477707006369428,0.04424778761061947,0.0,0.06451612903225806,0.2,,0.0,0.07142857142857142,0.053691275167785234,,0.058823529411764705,0.0,0.8,0.0,0.0,0.16666666666666666,,0.0,0.0,0.07211538461538461,0.0,0.0,0.027777777777777776,0.14583333333333334,0.14285714285714285,0.0,0.0,0.0,0.1,,0.0,0.0,0.0,,0.19230769230769232,0.0,0.0
2015-12-30,0.0,0.42857142857142855,0.10526315789473684,0.0,0.0,,0.0,0.0,0.0,,0.0,0.2,0.0,,0.0,0.5,0.1,0.13953488372093023,0.0,0.11538461538461539,0.03182256509161042,0.0,0.007751937984496124,0.125,0.0,0.0,0.03389830508474576,0.6666666666666666,,0.0,0.0,0.0,0.0,0.0,0.0,0.0,0.0,0.125,0.014598540145985401,0.0,0.021505376344086023,0.0,0.0,0.0,0.0,0.8571428571428571,0.0,0.5,0.0,0.07142857142857142,0.061224489795918366,0.016666666666666666,0.018518518518518517,0.07142857142857142,0.0,0.0,0.0,0.0,0.1,0.0,0.0,0.10526315789473684,0.0,,0.05555555555555555,0.0,0.012779552715654952,0.029850746268656716,0.0,0.5,0.0,0.0,0.0,0.0,0.0,0.0,0.0,0.0,0.0,0.0,0.024509803921568627,0.0,0.0,0.009950248756218905,0.0203125,0.023054755043227664,0.0,,0.2,0.0,0.037037037037037035,0.013651877133105802,0.0,0.0,0.0,,0.0,0.0,0.0,0.029411764705882353,,0.0,0.0,0.0,0.0,0.0,0.030395136778115502,0.16666666666666666,0.0,0.0,0.0,0.0,0.0,0.0,0.007633587786259542,0.07142857142857142,0.0,0.16666666666666666,0.06666666666666667,0.0,0.0,0.03333333333333333,0.0,0.0,0.0,0.0,0.0,0.0,0.0,0.0,0.06896551724137931,0.0,0.09090909090909091,,0.0,0.0,0.0,0.0,0.0,0.0,0.0,0.022058823529411766,0.5,0.006060606060606061,0.1111111111111111,0.125,0.15384615384615385,,0.0,0.07216494845360824,0.0,0.03529411764705882,0.038461538461538464,0.0,,0.2,0.0,0.011494252873563218,0.0,0.0,0.07692307692307693,0.0,0.0,0.15,0.15,0.06666666666666667,0.007017543859649123,0.0,0.0,0.0,0.0,0.0,0.14285714285714285,0.0,0.02195121951219512,0.0,0.01870748299319728,0.07142857142857142,0.0,0.0,0.0,0.0,0.02459016393442623,0.0,0.0,0.034482758620689655,0.0,0.0,0.0,0.0,0.05263157894736842,0.0,0.05405405405405406,0.01871657754010695,0.0,0.05042016806722689,0.0,0.0,0.0,0.0,0.0,0.0,0.0,0.008928571428571428,0.03571428571428571,0.0,0.0,0.0,0.0,0.0,0.0,0.0,0.0,0.0,0.043478260869565216,0.0,0.009287925696594427,0.02564102564102564,0.0,,0.0,0.5,0.014814814814814815,0.0,0.0,0.05454545454545454,1.0,0.0,0.04822043628013777,0.06896551724137931,0.0,0.0,1.0,0.0,0.0,0.01020408163265306,0.02531645569620253,,0.3333333333333333,0.01507537688442211,0.00631578947368421,0.07142857142857142,0.0,0.0,0.014492753623188406,0.0,0.1111111111111111,,0.0,0.0,0.0,0.0,0.027777777777777776,0.0,0.0,0.0,0.0,0.02127659574468085,0.0,0.046511627906976744,0.0,0.0,0.16666666666666666,0.043478260869565216,1.0,0.0,0.034482758620689655,0.0,0.013888888888888888,0.011904761904761904,0.05555555555555555,0.0,0.15384615384615385,0.0,0.0,0.0,0.03225806451612903,0.010899182561307902,0.037267080745341616,0.05555555555555555,0.0,0.05263157894736842,0.0,0.009009009009009009,0.0,0.04395604395604396,0.00946372239747634,0.018018018018018018,0.0,0.015873015873015872,0.0,,0.0,0.0,0.013422818791946308,,0.0,0.0,0.2,0.0,0.0,0.0,,0.0,0.0,0.014492753623188406,0.0,0.0,0.02702702702702703,0.0,0.0,0.0,0.0,0.0,0.0,0.0,0.0,0.0,0.0,,0.07692307692307693,0.0,0.0
2015-12-31,1.0,0.0,0.02040816326530612,0.0,0.0,,0.0,0.0,0.0,0.0,0.0,0.14285714285714285,0.0,,0.0,0.0,0.25,0.022727272727272728,0.0,0.047619047619047616,0.0012610340479192938,0.0,0.027777777777777776,0.0,0.0,0.0,0.0196078431372549,0.0,,0.0,0.0,0.0,0.0,0.0,0.0,0.0,0.0,0.0,0.0,0.0,0.0,0.0,0.0,0.0,0.0,0.75,0.0,0.0,0.0625,0.0,0.0,0.0,0.004878048780487805,0.0,0.1,0.0,0.0,0.0,0.0,0.0,0.0,0.0,0.0,,0.0,0.0,0.0,0.0,0.0,0.0,0.0,0.0,0.0,0.0,0.0,0.0,0.0,0.0,0.0,0.0,0.006493506493506494,0.0,0.0,0.012578616352201259,0.004132231404958678,0.0,0.0,,0.0,0.0,0.05,0.0,0.0,0.0,0.0,,0.09090909090909091,0.0,0.0,0.0,,0.0,0.0,0.0,0.0,0.0,0.00881057268722467,0.0,0.0,0.0,0.0,0.0,0.0,0.0,0.016597510373443983,0.0,0.0,0.0,0.0,0.0,0.0,0.0,0.0,0.0,0.0,0.14285714285714285,0.0,0.0,0.0,0.0,0.0,0.0,0.0,,0.0,0.0,0.0,0.0,0.0,0.0,0.0,0.0,0.0,0.00847457627118644,0.11764705882352941,0.0,0.0,,0.0,0.0,0.0,0.014450867052023121,0.0,0.0,,0.0,0.0,0.0,0.0,0.0,0.0,0.0,0.0,0.05555555555555555,0.0,0.0,0.00392156862745098,0.0,0.0,0.0,0.0,0.0,0.0,0.0,0.002857142857142857,0.0,0.012578616352201259,0.0,0.0,0.0,0.0,0.0,0.010309278350515464,0.0,0.030303030303030304,0.0,0.0,0.0,0.0,0.0,0.0,0.0,0.0,0.0125,0.0,0.0,0.0,0.0,0.0,0.16666666666666666,0.0,0.0,0.0,0.004651162790697674,0.0,0.0,0.0,0.0,0.0,0.0,0.0,0.0,0.0,0.16666666666666666,0.0,0.0,0.004201680672268907,0.0,0.0,,0.0,0.0,0.0,0.015384615384615385,0.0,0.0,0.0,0.0,0.0027739251040221915,0.05263157894736842,0.0,0.0,0.0,0.0,0.0,0.023529411764705882,0.007518796992481203,,0.0,0.0,0.002457002457002457,0.0,0.0,0.0,0.0,0.0,0.0,,0.0,0.0,0.0,0.0,0.037037037037037035,0.0,0.0,0.0,0.0,0.0,0.0,0.0,0.0,0.0,0.0,0.09523809523809523,0.6666666666666666,0.0,0.029411764705882353,0.0,0.005847953216374269,0.0,0.0,0.0,0.1111111111111111,0.0,0.0,0.0,0.0,0.006493506493506494,0.013440860215053764,0.0,0.0,0.0,0.0,0.0,0.0,0.02197802197802198,0.0,0.025974025974025976,0.0,0.0,0.2,,0.0,0.0,0.009259259259259259,,0.0,0.0,0.0,0.0,0.0,0.0,,0.0,0.0,0.005494505494505495,0.0,0.0,0.0,0.0,0.0,0.0,0.0,0.0,0.0,,0.5,0.0,0.0,,0.0,0.0,0.0
2016-01-01,0.0,,0.0,0.0,0.0,,0.0,0.0,0.0,,1.0,0.0,0.0,,0.0,,0.0,0.027777777777777776,0.0,0.0,0.0,0.0,0.009345794392523364,0.16666666666666666,0.0,0.0,0.022222222222222223,0.0,,0.0,0.0,0.0,0.0,0.0,0.0,0.0,0.0,0.0,0.0,0.027777777777777776,0.0041841004184100415,0.0,0.0,0.0,0.0,0.0,0.0,0.0,0.0,0.0,0.0,0.0,0.004830917874396135,0.0,0.2,0.0,0.0,,0.0,0.0,0.034482758620689655,0.0,0.0,,0.014925373134328358,0.0,0.0,0.0,,0.0,0.0,0.0,,0.0,0.0,0.0,0.0,0.0,0.0,0.0,0.006711409395973154,0.0,,0.018867924528301886,0.005366726296958855,0.0076481835564053535,0.0,,0.0,0.0,0.0,0.0,0.0,0.0,0.0,,0.09090909090909091,0.0,0.0,0.037037037037037035,,0.5,0.0,0.0,0.0,0.0,0.0038461538461538464,0.0,0.0,0.0,0.0,0.0,0.0,0.0,0.008,0.0,0.25,0.0,0.0,0.0,,0.0,0.0,,0.0,0.0,0.0,0.0,,0.0,0.14285714285714285,0.0,0.0,,0.0,0.0,0.0,0.0,0.0,0.0,0.0,0.0,1.0,0.0,0.0,0.0,0.0,,0.0,0.023255813953488372,1.0,0.024324324324324326,0.0,0.0,,0.0,0.0,0.03278688524590164,0.0,0.0,0.0,0.0,0.0,0.058823529411764705,0.0,0.0,0.0,0.0,0.0,0.0,0.0,0.0,0.0,0.0,0.0,0.0,0.009560229445506692,0.0,0.0,0.0,0.0,0.16666666666666666,0.02030456852791878,0.0,0.02702702702702703,0.0,0.0,0.25,0.0,0.0,0.08333333333333333,0.0,0.03571428571428571,0.0058823529411764705,0.0,0.0,0.0,0.0,0.16666666666666666,0.0,0.0,,0.0,0.024154589371980676,0.0,0.0,0.0,0.0,0.0,0.0,0.0,0.0,0.0,0.0,0.0,0.0,0.008771929824561403,0.0,0.0,,0.0,0.0,0.0,0.0,0.029411764705882353,0.0,0.0,0.0,0.015789473684210527,0.043478260869565216,0.0,,0.0,0.0,0.0,0.034482758620689655,0.0,,0.0,0.0,0.0024154589371980675,0.0,0.0,0.0,0.0,0.0,0.06666666666666667,0.0,0.0,0.0,0.0,0.034482758620689655,0.0,0.0,0.0,0.0,0.0,0.02702702702702703,0.0,0.0,0.0,0.0,0.0,0.0,,,0.0,0.0,0.0055248618784530384,0.02702702702702703,0.0,0.06666666666666667,0.0,0.0,0.0,0.0,0.058823529411764705,0.0,0.00234192037470726,0.16666666666666666,0.0,0.0,0.0,0.012195121951219513,,0.010526315789473684,0.0,0.0,0.0,0.0,0.25,,,0.0,0.0,,0.05263157894736842,0.0,0.0,,0.0,0.0,,0.0,,0.0,0.0,0.0,0.0,0.0,0.25,0.0,0.0,0.0,0.0,0.0,0.0,0.0,0.0,,0.0,,0.0
2016-01-02,0.0,,0.0,0.0,0.0,,0.0,0.0,0.0,,0.0,0.0,0.0,,0.0,,0.125,0.022222222222222223,0.0,0.0,0.0020491803278688526,0.0,0.016129032258064516,0.0,0.0,0.0,0.0,0.0,,0.0,0.0,0.0,0.0,0.0,0.0,0.0,0.0,0.0,0.0,0.0,0.0,0.0,0.0,0.0,0.0,0.14285714285714285,0.0,0.0,0.15789473684210525,0.0,0.05128205128205128,0.0,0.003875968992248062,0.0,0.0,0.058823529411764705,0.0,0.0,0.0,0.0,0.030303030303030304,0.0,0.0,,0.02531645569620253,0.0,0.0038314176245210726,0.0,,0.0,0.0,0.0,,0.0,0.0,0.0,0.0,0.024390243902439025,0.0,0.0,0.0,0.0,,0.0,0.0032679738562091504,0.019193857965451054,0.0,,0.0,0.16666666666666666,0.0,0.006825938566552901,0.0,0.0,0.0,,0.06666666666666667,0.0,0.0,0.0,,0.5,0.0,0.0,0.0,0.0,0.014814814814814815,0.0,0.0,0.0,0.0,0.0,0.0,0.0,0.010676156583629894,0.0,0.0,0.0,0.0,0.0,,0.04,0.0,,0.0,0.0,0.0,0.0,,0.0,0.09523809523809523,0.0,0.05555555555555555,,0.0,0.0,0.0,0.0,0.0,0.0,0.0,0.007407407407407408,0.0,0.0,0.0,0.0,0.0,,0.0,0.0,0.0,0.004784688995215311,0.0,0.0,,0.0,0.0,0.014084507042253521,0.0,0.0,0.0,0.0,0.0,0.045454545454545456,0.0,0.019230769230769232,0.007407407407407408,0.0,0.0,0.1,0.0,0.0,0.0,0.0,0.0,0.0,0.0088339222614841,0.0,0.0,0.0,0.0,0.0,0.004366812227074236,0.0,0.05405405405405406,0.0,0.0,0.0,0.0,0.0,0.0,0.25,0.00980392156862745,0.012755102040816327,0.0,0.0,0.0,0.0,0.0,0.0,0.0,,0.0,0.004651162790697674,0.0,0.0,0.0,0.0,0.0,0.0,0.0,0.0,0.5,0.0,0.0,0.0,0.0,0.008771929824561403,0.0,,0.0,0.0,0.0,0.027777777777777776,0.0,0.0,0.0,0.0,0.0065252854812398045,0.03571428571428571,0.0,,0.0,0.0,0.0,0.0,0.013422818791946308,,0.0,0.01092896174863388,0.002183406113537118,0.0,0.0,0.0,0.0,0.0,0.0,,0.0,0.0,0.0,0.027777777777777776,0.0,0.0,0.0,0.0,0.0,0.0,0.0,0.030303030303030304,0.0,0.0,0.0,0.0,,,0.032520325203252036,0.0,0.00975609756097561,0.0,0.0,0.0,0.07692307692307693,0.0,0.0,0.0,0.0,0.008746355685131196,0.0066815144766146995,0.0,0.0,0.0,0.0,0.0,,0.01904761904761905,0.003215434083601286,0.009523809523809525,0.0,0.020202020202020204,0.2,,,0.0,0.007194244604316547,,0.125,0.0,0.0,,0.0,0.0,,0.0,,0.0,0.0,0.0,0.0,0.0196078431372549,0.0,0.0,0.0,0.0,0.0,0.0,0.0,0.0,0.0,,0.0,0.0,0.0
2016-01-03,0.0,,0.0,0.0,0.0,,0.0,0.25,0.0,0.0,0.0,0.0,0.0,,0.0,,0.0,0.0,0.0,0.043478260869565216,0.005774783445620789,0.0,0.007352941176470588,0.125,0.0,0.0,0.0,0.0,,0.0,0.0,0.0,0.0,0.0,0.0,0.0,0.0,0.0,0.007246376811594203,0.023809523809523808,0.0,0.0,0.0,0.0,0.0,0.0,0.0,0.0,0.0,0.0,0.0,0.031746031746031744,0.0,0.0,0.0,0.0,0.0,0.0,0.0,0.0,0.0,0.0,0.0,,0.011494252873563218,0.0,0.006349206349206349,0.0,,0.0,0.0,0.0,,0.0,0.0,0.0,0.0,0.0,0.0,0.0,0.005128205128205128,0.0,,0.020618556701030927,0.0029239766081871343,0.005067567567567568,0.0,,0.0,0.0,0.08695652173913043,0.006711409395973154,0.0,0.0,0.0,,0.0,0.0,0.0,0.0,,0.0,0.0,0.09090909090909091,0.0,0.0,0.016025641025641024,0.16666666666666666,0.0,0.0,0.047619047619047616,0.0,0.0,0.0,0.0,0.0,0.08333333333333333,0.0,0.1,0.0,,0.03225806451612903,0.0,,0.0,0.0,0.0,0.125,,0.0,0.0,0.0,0.05263157894736842,,0.0,0.0,0.2,0.0,0.0,0.5,0.0,0.007352941176470588,0.0,0.012048192771084338,0.0,0.0,0.0,,0.0,0.0,0.0,0.006928406466512702,0.0,0.0,,0.0,0.0,0.0125,0.5,0.0,0.0,0.0,0.0,0.047619047619047616,0.0,0.0,0.0,0.0,0.0,0.2727272727272727,0.0,0.16666666666666666,0.0,0.0,0.005063291139240506,0.0,0.01854974704890388,0.0,0.0,0.0,0.09090909090909091,0.0,0.004201680672268907,0.0,0.0,0.09523809523809523,0.0,0.0,0.0,0.0,0.0,0.0,0.0,0.00516795865633075,0.0,0.0038314176245210726,0.5,0.0,0.0,0.0,0.0,,0.058823529411764705,0.01818181818181818,0.0,0.0,0.0,0.0,0.0,0.0,0.0,0.0,0.5,0.125,0.0,0.0,0.0030959752321981426,0.0,0.0,,0.0,0.0,0.028169014084507043,0.0,0.0,0.018867924528301886,0.0,0.05172413793103448,0.005970149253731343,0.0,0.0,0.0,0.0,0.0,0.0,0.0,0.01910828025477707,,0.0,0.005,0.0021231422505307855,0.0,0.0,0.0,0.0,0.0,0.0,,0.09090909090909091,0.0,0.0,0.06060606060606061,0.0,0.0,0.0,0.5,0.14285714285714285,0.009900990099009901,0.0,0.0,0.0,0.0,0.0,0.0,,,0.0,0.0,0.008849557522123894,0.011494252873563218,0.0,0.1111111111111111,0.0,0.0,0.0,0.0,0.03225806451612903,0.014005602240896359,0.055900621118012424,0.0,0.0,0.05,0.0,0.00847457627118644,,0.028846153846153848,0.006309148264984227,0.026785714285714284,0.0,0.00847457627118644,0.0,,,0.0,0.013793103448275862,,0.0,0.0,0.0,,0.0,0.0,,0.0,,0.008849557522123894,0.0,0.0,0.0,0.0,0.0,0.0,0.0,0.0,0.0,,0.0,0.0,0.0,,0.0,0.0,0.0
2016-01-04,0.0,,0.0,0.0,0.0,,0.0,0.0,0.0,,0.0,0.0,0.0,,0.0,,0.0,0.0,0.0,0.0,0.0,0.0,0.007633587786259542,0.0,0.0,0.0,0.0,0.0,,0.0,0.0,0.0,0.034482758620689655,0.0,0.0,0.0,0.0,0.0,0.0,0.047619047619047616,0.009868421052631578,0.0,0.0,0.0,0.0,0.0,0.0,0.0,0.0,0.07142857142857142,0.0,0.034482758620689655,0.003816793893129771,0.0,0.0,0.0,0.0,0.0,0.0,0.0,0.0,0.0,0.0,,0.0,0.0,0.00967741935483871,0.0,,0.0,0.0,0.0,,0.0,0.0,0.0,0.0,0.0,0.0,0.0,0.004975124378109453,0.0,,0.0,0.0,0.018214936247723135,0.0,,0.0,0.0,0.0,0.0,0.0,0.0,0.0,,0.0,0.0,0.0,0.0,,0.0,0.0,0.1,0.0,0.0,0.005970149253731343,0.0,0.0,0.07692307692307693,0.05555555555555555,0.0,0.16666666666666666,0.6,0.0,0.0,0.16666666666666666,0.0,0.0,0.0,,0.03333333333333333,0.0,,0.0,0.0,0.0,0.0,,0.0,0.0,0.0,0.0,,0.0,0.0,0.0,0.0,0.0,0.0,0.0,0.007352941176470588,0.0,0.0,0.0,0.0,0.0,,0.0,0.0,0.0,0.009280742459396751,0.0,0.0,,0.0,0.0,0.0,0.0,0.0,0.0,0.0,0.0,0.0,0.0,0.0,0.01056338028169014,0.0,0.0,0.09090909090909091,0.05714285714285714,0.0,0.0,0.0,0.007317073170731708,0.0,0.013333333333333334,0.0,0.0,0.0,0.08333333333333333,0.0,0.007434944237918215,0.0,0.02857142857142857,0.0,0.0,0.0,0.0,0.0,0.0,0.0,0.009345794392523364,0.0027624309392265192,0.0,0.0,0.0,0.0,0.0,0.125,0.0,,0.0,0.018779342723004695,0.0,0.0,0.0,0.0,0.0,0.0,0.0,0.0,0.0,0.125,0.0,0.0,0.006535947712418301,0.00847457627118644,0.0,,0.0,0.0,0.007352941176470588,0.0,0.0,0.0,0.0,0.03636363636363636,0.002902757619738752,0.0,0.0,0.0,0.0,0.0,0.0,0.0,0.05228758169934641,,0.0,0.0,0.0064794816414686825,0.0,0.0,0.0,0.0,0.0,0.0,0.0,0.0,0.0,0.0,0.03225806451612903,0.0,0.0,0.0,0.0,0.0,0.0,0.0,0.025,0.0,0.0,0.0,0.058823529411764705,,0.0,0.0,0.0,0.023474178403755867,0.0,0.0,0.0625,0.0,0.14285714285714285,0.0,0.0,0.041666666666666664,0.008450704225352112,0.04703476482617587,0.0,0.0,0.0,0.0,0.008928571428571428,,0.0,0.003236245954692557,0.009009009009009009,0.0,0.032,0.0,,,0.0,0.0136986301369863,,0.0,0.0,0.0,,0.0,0.0,,0.0,,0.004784688995215311,0.0,0.0,0.0,0.0425531914893617,0.0,0.0,0.0,0.0,0.0,0.0,0.0,0.0,0.0,,0.0,0.0,0.0
2016-01-05,0.0,,0.0,0.0,0.0,,0.0,0.0,0.0,,0.0,0.0,0.0,,0.041666666666666664,,0.0,0.0,0.0,0.0,0.002053388090349076,0.2222222222222222,0.0,0.0,0.0,0.0,0.0,0.0,,0.0,0.0,0.0,0.0,0.0,0.0,0.0,0.0,0.0,0.0,0.02702702702702703,0.009404388714733543,0.0,0.0,0.0,0.0,0.0,0.0,0.0,0.0,0.1,0.0,0.08333333333333333,0.01593625498007968,0.0,0.0,0.0,0.0,0.0,0.0,0.0,0.0,0.1,0.0,,0.023255813953488372,0.0,0.007042253521126761,0.0,,0.0,0.0,0.05,,0.0,0.0,0.0,0.0,0.0,0.0,0.0,0.005025125628140704,0.0,,0.004545454545454545,0.01048951048951049,0.00749063670411985,0.0,,0.0,0.0,0.0,0.0031545741324921135,0.0,0.0,0.0,,0.0,0.0,0.2,0.0,,0.0,0.0,0.0,0.0,0.0,0.003389830508474576,0.0,0.0,0.0,0.0,0.0,0.0,0.2,0.008658008658008658,0.0,0.0,0.0,0.0,0.0,,0.23076923076923078,0.0,,0.0,0.0,0.0,0.0,,0.0,0.041666666666666664,0.0,0.0,,0.0,0.0,0.0,0.0,0.0,0.0,0.0,0.008264462809917356,0.0,0.006329113924050633,0.0,0.0,0.0,,0.0,0.0,0.0,0.013774104683195593,0.0,0.0,,0.0,0.0,0.013333333333333334,0.0,0.0,0.0,0.0,0.0,0.0,0.0,0.0,0.020080321285140562,0.0,0.0,0.0,0.0,0.0,0.0,0.0,0.21241050119331742,0.0,0.028037383177570093,0.0,0.0,0.0,0.0,0.0,0.017241379310344827,0.04,0.0,0.0,0.0,0.0,0.0,0.0,0.05555555555555555,0.0,0.009009009009009009,0.014970059880239521,0.0,0.017391304347826087,0.0,0.0,0.0,0.0,0.0,,0.058823529411764705,0.010752688172043012,0.02197802197802198,0.0,0.0,0.0,0.0,1.0,0.0,0.0,0.0,0.0,0.0,0.0,0.0,0.0,0.0,,0.0,0.0,0.0234375,0.0,0.0,0.0,0.0,0.018518518518518517,0.004846526655896607,0.0,0.0,,0.0,0.0,0.0,0.01282051282051282,0.022556390977443608,,0.0,0.010526315789473684,0.015189873417721518,0.0,0.0,0.0,0.0,0.0,0.0,,0.0,0.0,0.0,0.2857142857142857,0.0,0.0,0.0,0.0,0.0,0.0,0.0,0.0,0.0,0.06060606060606061,0.0,0.0,,0.0,0.0,0.0,0.026455026455026454,0.012658227848101266,0.0,0.0,0.0,0.0,0.0,0.0,0.038461538461538464,0.00946372239747634,0.04672897196261682,0.0,0.0,0.0,0.0,0.08256880733944955,,0.0,0.014134275618374558,0.029411764705882353,0.0,0.0423728813559322,0.0,,,0.0,0.0,,0.0,0.3333333333333333,1.0,,0.0,0.07142857142857142,,0.0,,0.0,0.0,0.0,0.0,0.0,0.0,0.0,0.0,0.0,0.0,,0.0,0.0,0.0,,0.0,0.0,0.0
2016-01-06,0.0,,0.0,0.0,0.0,,0.0,0.5,0.0,,0.0,0.0,0.0,,0.0,,0.0,0.0,0.0,0.0,0.0040650406504065045,0.0,0.00847457627118644,0.0,0.0,0.0,0.0,0.0,,0.0,0.0,,0.0,0.0,0.125,0.0,0.0,0.0,0.0,0.02631578947368421,0.00946372239747634,0.0,0.0,0.0,0.0,0.0,0.0,0.0,0.0,0.0,0.0,0.12903225806451613,0.004310344827586207,0.0,0.0,0.0,0.0,0.0,0.0,0.0,0.0,0.0,0.0,,0.0,0.0,0.003076923076923077,0.0,,0.0,0.0,0.0,,0.0,0.0,0.0,0.0,0.0,0.0,0.0,0.004975124378109453,0.0,,0.008888888888888889,0.012389380530973451,0.003669724770642202,0.0,,0.0,0.0,0.0,0.0,0.5,0.0,0.0,,0.0,0.5,0.0,0.0,,0.0,0.0,0.3,0.0,0.0,0.003389830508474576,0.0,0.0,0.0,0.0,0.0,0.0,0.4,0.012658227848101266,0.0,0.0,0.0,0.0,0.0,,0.04,0.0,,0.0,0.0,0.0,0.0,,0.0,0.0,0.0,0.0,,0.0,0.0,0.0,0.0,0.2,0.0,0.0,0.0,0.0,0.012987012987012988,0.0,0.0,0.0,,0.5,0.023529411764705882,0.0,0.0027548209366391185,0.0,0.0,,0.0,0.0,0.013333333333333334,0.0,0.0,0.0,0.0,0.0,0.0,0.0,0.0,0.012,0.0,0.6666666666666666,0.0,0.0,0.0,0.0,0.0,0.08771929824561403,0.0,0.0521415270018622,0.0,0.0,0.0,0.0,0.0,0.010380622837370242,0.041666666666666664,0.0,0.0,0.0,0.0,0.0,0.0,0.0,0.0,0.0,0.0058823529411764705,0.14285714285714285,0.0,0.0,0.0,0.0,0.25,0.0,,0.0,0.0,0.0,0.0,0.0,0.0,0.0,1.0,0.0,0.0,0.0,0.14285714285714285,0.0,0.0,0.003125,0.02654867256637168,0.0,,0.0,0.0,0.048,0.017241379310344827,0.0,0.0,0.0,0.037037037037037035,0.0016501650165016502,0.0,0.0,,0.0,0.0,0.0,0.0,0.014705882352941176,,0.0,0.0,0.021176470588235293,0.0,0.0,0.0,0.015873015873015872,0.0,0.0,0.0,0.0,0.0,0.0,0.03571428571428571,0.0,0.0,0.0,0.0,0.2857142857142857,0.0,0.0,0.0,0.0,0.16129032258064516,0.0,0.05,,0.0,0.0,0.5,0.08629441624365482,0.0,0.05555555555555555,0.25,0.0,0.42857142857142855,0.0,0.5,0.0,0.01929260450160772,0.12121212121212122,0.0,0.0,0.0,0.0,0.08256880733944955,,0.0,0.0,0.04716981132075472,0.5,0.05128205128205128,0.0,,,0.0,0.0,,0.0,0.0,0.8,,0.0,0.0,,0.0,,0.005319148936170213,0.0,0.0,0.0,0.047619047619047616,0.0,0.0,0.0,0.0,0.06666666666666667,,0.0,0.0,0.0,,0.0,0.0,0.0
2016-01-07,0.0,,0.08163265306122448,0.0,0.0,,0.0,0.0,0.0,0.0,0.0,0.0,0.0,,0.04,,0.0,0.0,0.0,0.0,0.0019455252918287938,0.0,0.008333333333333333,0.0,0.0,0.0,0.0,0.0,,0.0,0.0,,0.03225806451612903,0.0,0.14285714285714285,0.0,0.0,0.0,0.014925373134328358,0.0,0.006134969325153374,0.0,0.0,0.0,0.0,0.14285714285714285,0.5,0.5,0.0,0.0,0.0,0.06451612903225806,0.0,0.0,0.0,0.11764705882352941,0.0,0.0,0.0,0.0,0.03125,0.25,0.0,,0.021052631578947368,0.0,0.0030581039755351682,0.0,,0.0,0.0,0.043478260869565216,,0.0,0.0,0.0,0.0,0.043478260869565216,0.0,0.0,0.014925373134328358,0.0,,0.013215859030837005,0.01839464882943144,0.017953321364452424,0.0,,0.0,0.0,0.0,0.0,1.0,0.0,0.0,,0.0,0.0,0.0,0.0,,0.0,0.0,0.1,0.0,0.0,0.01,0.0,0.16666666666666666,0.6923076923076923,0.0,0.0,0.0,1.0,0.0,0.0,0.0,0.0,0.0,0.0,,0.06666666666666667,0.0,,0.16666666666666666,0.0,0.0,0.0,,0.0,0.0,0.0,0.05263157894736842,,0.0,0.0,0.0,0.0,0.0,0.0,0.0,0.0,0.0,0.01935483870967742,0.058823529411764705,0.0,0.0,,0.0,0.011627906976744186,0.0,0.009779951100244499,0.043478260869565216,0.0,,0.0,0.0,0.0,0.0,0.0,0.0,0.0,0.0,0.0,0.0,0.0,0.0,0.0,0.6666666666666666,0.0,0.0,0.0,0.0,0.0,0.0267639902676399,0.0,0.012589928057553957,0.14285714285714285,0.0,0.0,0.0,0.0,0.010067114093959731,0.038461538461538464,0.0,0.0,0.0,0.2,0.0,0.0,0.058823529411764705,0.0,0.017857142857142856,0.0029239766081871343,0.0,0.009009009009009009,0.0,0.0,0.0,0.0,0.0,,0.0,0.005050505050505051,0.021052631578947368,0.0,0.0,0.0,0.0,1.0,0.0,0.16666666666666666,0.0,0.0,0.0,0.0,0.008875739644970414,0.017094017094017096,0.0,,0.0,0.0,0.016129032258064516,0.016666666666666666,0.0,0.02127659574468085,0.0,0.01818181818181818,0.023510971786833857,0.06666666666666667,0.0,0.0,0.0,0.0,0.0,0.0,0.0072992700729927005,,0.0,0.0,0.022988505747126436,0.0,0.0,0.0,0.0,0.0,0.0,,0.0,0.0,0.0,0.0,0.0,0.0,0.2857142857142857,0.0,0.0,0.011494252873563218,0.0,0.0,0.0,0.029411764705882353,0.16666666666666666,0.05,,0.0,0.009615384615384616,0.0,0.014354066985645933,0.02631578947368421,0.0,0.0,0.0,0.5714285714285714,0.0,0.0,0.0,0.0,0.017897091722595078,0.0,0.0,0.0,0.0,0.02702702702702703,,0.011904761904761904,0.023972602739726026,0.0,0.0,0.01639344262295082,0.0,,,0.0,0.013245033112582781,,0.0,0.0,0.5,,0.0,0.0,,0.0,,0.01020408163265306,0.0,0.0,0.046511627906976744,0.02127659574468085,0.0,0.5,0.0,0.0,0.0,,0.0,0.0,0.0,,0.0,0.0,0.0
2016-01-08,0.0,,0.020833333333333332,0.0,0.0,,0.0,0.0,0.0,,0.0,0.25,0.0,,0.0,,0.1111111111111111,0.0,0.0,0.0,0.005836575875486381,0.2,0.01652892561983471,0.0,0.0,0.0,0.0,0.0,,0.0,0.0,,0.06451612903225806,0.0,0.0,0.0,0.0,0.0,0.007407407407407408,0.0,0.0,0.6666666666666666,0.3333333333333333,0.0,0.0,0.2857142857142857,0.0,0.0,0.0,0.0,0.0,0.016129032258064516,0.0,0.0,0.0,0.0,0.0,0.0,0.0,0.0,0.02857142857142857,0.7142857142857143,0.0,,0.0,0.0,0.0,0.016129032258064516,,1.0,0.0,0.0,,0.0,0.375,0.0,0.0,0.0,0.5,0.0,0.01990049751243781,0.0,,0.022026431718061675,0.026981450252951095,0.008944543828264758,0.0,,0.0,0.25,0.0,0.0030864197530864196,0.0,0.0,0.0,,0.0,0.0,0.0,0.0,,0.0,0.0,0.0,0.0,0.0,0.006711409395973154,0.0,0.0,0.0,0.0,0.0,0.0,0.2,0.0,0.0,0.0,0.0,0.0,0.0,,0.0,0.0,,0.16666666666666666,0.14285714285714285,0.0,0.25,,0.0,0.0,0.0,0.0,,0.0,0.0,0.0,0.0,0.0,0.0,0.0,0.0,0.5,0.09740259740259741,0.0,0.3333333333333333,0.09090909090909091,,0.0,0.011764705882352941,0.0,0.10024449877750612,0.0,0.0,,0.0,0.0,0.0,0.0,0.0,0.0,0.0,0.058823529411764705,0.0,0.0625,0.019230769230769232,0.0,0.0,0.0,0.0,0.0,0.0,0.0,0.0,0.004694835680751174,0.0,0.003590664272890485,0.07142857142857142,0.0,0.3333333333333333,0.0,0.1111111111111111,0.010101010101010102,0.0,0.0,0.09090909090909091,0.125,0.16666666666666666,0.0,0.0,0.11764705882352941,0.0,0.0,0.002857142857142857,0.0,0.009009009009009009,0.0,0.0,0.0,0.0,0.0,,0.0,0.0,0.031914893617021274,0.0,0.0,0.125,0.1111111111111111,0.0,0.08333333333333333,0.0,1.0,0.0,0.18181818181818182,0.0,0.020771513353115726,0.00847457627118644,0.0,,0.0,0.0,0.024,0.0,0.02040816326530612,0.06382978723404255,0.0,0.01818181818181818,0.023510971786833857,0.0,0.0,0.0,0.0,0.0,0.0,0.0,0.007142857142857143,,0.0,0.0,0.002304147465437788,0.1111111111111111,0.0,0.0,0.014705882352941176,0.0,0.13333333333333333,0.0,0.0,0.0,0.0,0.06451612903225806,0.0,0.0,0.125,0.0,0.0,0.0,0.3333333333333333,0.0,0.0,0.0,0.0,0.0,,0.0,0.0,0.0,0.00975609756097561,0.0379746835443038,0.0,0.0,0.0,0.0,0.0,0.0,0.0,0.0,0.0022172949002217295,0.0,0.0,0.125,0.0,0.017391304347826087,,0.012048192771084338,0.0,0.0,0.0,0.00819672131147541,0.0,,,0.0,0.013422818791946308,,0.0,0.0,0.75,,0.0,0.0,,0.0,,0.010256410256410256,0.0,0.0,0.046511627906976744,0.0425531914893617,0.0,0.0,0.0,0.0,0.05555555555555555,,0.0,0.0,0.0,,0.0,0.0,0.0
2016-01-09,0.0,,0.0,0.0,0.0,,0.0,0.0,0.0,,1.0,0.25,0.0,,0.041666666666666664,,0.0,0.02564102564102564,0.0,0.0,0.0040595399188092015,0.14285714285714285,0.011363636363636364,0.0,0.0,0.25,0.022727272727272728,0.0,,0.25,0.0,,0.05,0.14285714285714285,0.0,0.0,0.0,0.0,0.010638297872340425,0.0,0.004694835680751174,0.0,0.0,0.0,0.0,0.0,0.3333333333333333,0.0,0.07142857142857142,0.0,0.0,0.023255813953488372,0.0048543689320388345,0.0,0.0,0.0,0.0,0.0,0.0,0.0,0.09090909090909091,0.0,0.0,,0.015873015873015872,1.0,0.011811023622047244,0.0,,0.5,0.0,0.17647058823529413,,0.0,0.3333333333333333,0.0,0.0,0.0,0.5,0.0,0.014388489208633094,0.08333333333333333,,0.006535947712418301,0.006756756756756757,0.008849557522123894,0.0,,0.2,0.0,0.0,0.0,0.0,0.0,0.0,,0.0,0.0,0.0,0.0,,0.0,0.0,0.0,0.25,0.0,0.0,0.0,0.0,0.0,0.0,0.0,0.0,0.0,0.00392156862745098,0.0,0.1111111111111111,0.0,0.16666666666666666,0.0,,0.0,0.0,,0.3333333333333333,0.0,0.42857142857142855,0.16666666666666666,,0.0,0.05263157894736842,0.0,0.0,,0.0,0.0,0.0,0.0,0.0,0.0,0.0,0.0,0.0,0.0,0.0,0.16666666666666666,0.2,,0.0,0.01694915254237288,0.0,0.006944444444444444,0.0,0.0,,0.0,0.5,0.0,0.0,0.0,0.0,0.0,0.0,0.058823529411764705,0.1111111111111111,0.0,0.0,0.0,0.0,0.2,0.0,0.0,0.0,0.0,0.010723860589812333,0.0,0.0044943820224719105,0.0,0.0,0.0,0.0,0.0,0.005988023952095809,0.09523809523809523,0.0,0.0,0.16666666666666666,0.0,0.0,0.0,0.09090909090909091,0.3333333333333333,0.024691358024691357,0.0056022408963585435,0.2,0.062146892655367235,0.0,0.03571428571428571,0.0,0.0,0.0,,0.0,0.0,0.046875,0.5,0.0,0.0,0.0,0.0,0.14285714285714285,0.0,1.0,0.0,0.0,0.0,0.008888888888888889,0.0,0.0,,0.0,0.0,0.0,0.0,0.0,0.08333333333333333,0.0,0.025,0.07006369426751592,0.0,0.0,,0.0,0.5,0.0,0.0136986301369863,0.008928571428571428,,0.0,0.0064516129032258064,0.007792207792207792,0.2,0.0,0.0,0.0,0.0,0.0,,0.0,0.0,0.0,0.0,0.0,0.08333333333333333,0.2,0.0,0.0,0.0,0.0,0.041666666666666664,0.0,0.0,0.0,0.058823529411764705,0.0,0.0,0.01680672268907563,0.0,0.006666666666666667,0.0,0.0,0.0,0.1111111111111111,0.0,0.3333333333333333,0.5,0.0,0.007352941176470588,0.0029154518950437317,0.0,0.0,0.0,0.0,0.0273972602739726,,0.0,0.004484304932735426,0.05555555555555555,0.0,0.023255813953488372,0.25,,,0.0,0.019230769230769232,,0.0,0.0,0.2,,0.0,0.09090909090909091,,0.0,,0.0055248618784530384,0.0,0.0,0.0,0.0,0.0,0.0,0.0,0.0,0.0,,0.0,0.0,0.0,,0.0,0.0,0.0
2016-01-10,0.0,,0.023255813953488372,0.0,0.0,,0.0,0.0,0.0,0.0,0.0,0.0,0.0,,0.041666666666666664,,0.0,0.0,1.0,0.0,0.005257623554153523,0.0,0.00909090909090909,0.0,0.0,0.125,0.043478260869565216,0.0,,0.0,0.0,,0.0,0.0,0.0,0.0,0.0,0.3333333333333333,0.034782608695652174,0.02564102564102564,0.0149812734082397,0.0,0.0,0.0,0.0,0.0,0.0,0.0,0.0,0.14285714285714285,0.05,0.0,0.004784688995215311,0.0,0.0,0.0,0.0,0.0,0.1,0.16666666666666666,0.0,0.125,0.5,,0.046511627906976744,0.0,0.014084507042253521,0.05555555555555555,,0.5,0.0,0.0,,0.0,0.0,0.0,0.0,0.02564102564102564,0.0,0.0,0.005681818181818182,0.11764705882352941,,0.024390243902439025,0.012727272727272728,0.0057692307692307696,0.0,,0.3333333333333333,0.0,0.09090909090909091,0.21035598705501618,0.0,0.5,0.0,,0.0,0.0,0.3333333333333333,0.0,,0.0,0.0,0.1,0.42857142857142855,0.0,0.02,0.0,0.16666666666666666,0.1,0.047619047619047616,0.0,0.0,0.0,0.02066115702479339,0.0,0.1,0.0,0.0,0.0,,0.0,0.0,,0.0,0.0,0.0,0.2222222222222222,,0.0,0.08695652173913043,0.0,0.0,,0.2,0.0,0.0,0.0,0.0,0.0,0.0,0.0,0.0,0.007518796992481203,0.0,0.0,0.1111111111111111,,0.0,0.024691358024691357,0.0,0.005509641873278237,0.0,0.3333333333333333,,0.0,1.0,0.0547945205479452,0.0,0.0,0.0,0.0,0.0,0.0,0.0,0.0,0.07407407407407407,0.5,0.5,0.0,0.0,0.0,0.16666666666666666,1.0,0.012345679012345678,0.0,0.00392156862745098,0.0,0.0,0.0,0.0,0.0,0.05508474576271186,0.0,0.0,0.0,0.0,0.0,0.0,0.0,0.07692307692307693,0.5,0.009708737864077669,0.017595307917888565,0.0,0.020942408376963352,0.0,0.0,0.0,0.0,0.0,,0.06666666666666667,0.01015228426395939,0.012195121951219513,0.0,0.0,0.0,0.0,0.0,0.0,0.0,0.0,0.14285714285714285,0.1,0.3333333333333333,0.019230769230769232,0.009009009009009009,0.0,,0.0,0.0,0.009259259259259259,0.016129032258064516,0.0,0.045454545454545456,0.0,0.0,0.02058319039451115,0.03571428571428571,0.0,0.0,0.0,0.5,0.0,0.02702702702702703,0.0,,0.0,0.005555555555555556,0.004819277108433735,0.14285714285714285,0.0,0.0,0.0,0.0,0.0,,0.0,0.0,0.0,0.030303030303030304,0.03125,0.08333333333333333,0.0,0.0,0.0,0.02531645569620253,0.0,0.05405405405405406,0.5,0.0,0.0,0.05555555555555555,,0.0,0.02912621359223301,0.0,0.005291005291005291,0.0,0.0,0.0,0.16666666666666666,0.0,0.0,0.0,0.04,0.0,0.007142857142857143,0.0,0.0,0.0,0.0,0.010638297872340425,,0.0,0.027586206896551724,0.020833333333333332,0.0,0.0,0.0,,,0.0,0.03007518796992481,,0.06666666666666667,0.0,0.0,,0.0,0.07142857142857142,,0.0,,0.026455026455026454,0.0,0.0,0.02631578947368421,0.0,0.0,0.0,0.0,0.0,0.0,,0.0,0.0,0.0,,0.0,0.0,0.0
2016-01-11,0.0,,0.0,0.0,0.0,,0.0,0.0,0.0,,0.0,0.0,0.14285714285714285,,0.0,,0.0,0.0,0.0,0.0,0.006692160611854685,0.0,0.00819672131147541,0.0,0.0,0.0,0.0,0.0,,0.0,0.0,,0.0,0.0,0.0,0.0,0.0,0.0,0.014598540145985401,0.0,0.0,0.0,0.0,0.0,0.0,0.0,0.0,0.0,0.0,0.0,0.0,0.016129032258064516,0.012552301255230125,0.0,0.0,0.0,0.0,0.0,0.0,0.0,0.0,0.0,0.0,,0.010309278350515464,0.0,0.007017543859649123,0.015384615384615385,,0.0,0.0,0.0,,0.0,0.1111111111111111,0.0,0.0,0.020833333333333332,0.0,0.0,0.0,0.0,,0.017543859649122806,0.0,0.0035971223021582736,0.0,,0.0,0.0,0.0,0.006024096385542169,0.5,0.0,0.0,,0.0,1.0,0.0,0.0,,0.0,0.0,0.0,0.0,0.0,0.0165016501650165,0.0,0.0,0.23076923076923078,0.05,0.0,0.0,0.0,0.0040650406504065045,0.0,0.0,0.0,0.0,0.0,,0.0,0.0,,0.16666666666666666,0.0,0.0,0.0,,0.0,0.037037037037037035,0.0,0.0,,0.0,0.0,0.0,0.0,0.0,0.0,0.0,0.00819672131147541,0.0,0.006369426751592357,0.0,0.0,0.0,,0.0,0.011904761904761904,0.0,0.0024390243902439024,0.0,0.0,,0.0,0.0,0.013333333333333334,0.0,0.0,0.0,0.0,0.0,0.0,0.0,0.0,0.003703703703703704,0.0,0.3333333333333333,0.0,0.0,0.0,0.125,0.0,0.0,0.0,0.009057971014492754,0.0,0.0,0.0,0.0,0.0,0.020134228187919462,0.038461538461538464,0.0,0.0,0.0,0.0,0.0,0.0,0.0,0.14285714285714285,0.017094017094017096,0.0029069767441860465,0.0,0.05286343612334802,0.0,0.0,0.0,0.0,0.14285714285714285,,0.0,0.010309278350515464,0.041666666666666664,0.5,0.0,0.0,0.0,0.0,0.0,0.0,0.0,0.0,0.047619047619047616,0.16666666666666666,0.011627906976744186,0.00847457627118644,0.0,,0.0,0.0,0.016260162601626018,0.0,0.0,0.02040816326530612,0.0,0.01818181818181818,0.0343213728549142,0.0,0.0,0.0,0.0,0.0,0.0,0.0125,0.0,,0.0,0.0,0.009216589861751152,0.1111111111111111,0.5,0.0,0.0,0.5,0.06666666666666667,0.0,0.0,0.0,0.0,0.03225806451612903,0.0,0.07692307692307693,0.0,0.0,0.0,0.011627906976744186,0.0,0.0,0.0,0.0,0.0,0.0,,0.0,0.0,0.0,0.0048543689320388345,0.0,0.0,0.0,0.07142857142857142,0.0,0.0,0.0,0.0,0.006172839506172839,0.002242152466367713,0.0,0.0,0.0,0.0,0.008695652173913044,,0.0,0.013605442176870748,0.018018018018018018,0.0,0.008333333333333333,0.0,,,0.0,0.013513513513513514,,0.0,0.0,0.6666666666666666,,0.0,0.0,,0.0,,0.01020408163265306,0.0,0.0,0.023255813953488372,0.0,0.0,0.0,0.0,0.0,0.0,,0.0,0.0,0.0,,0.0,0.0,0.0
2016-01-12,0.0,,0.020833333333333332,0.5,0.0,,0.0,0.0,0.0,,0.0,0.0,0.0,,0.04,,0.0,0.05263157894736842,0.0,0.0,0.002973240832507433,0.0,0.0,0.14285714285714285,0.0,0.0,0.02040816326530612,0.0,,0.0,0.0,,0.0,0.0,0.14285714285714285,0.0,0.0,0.0,0.014814814814814815,0.0,0.009433962264150943,0.0,0.0,0.0,0.0,0.0,0.0,0.0,0.0,0.0,0.14634146341463414,0.0,0.004273504273504274,0.0,0.0,0.0,0.0,0.0,0.07692307692307693,0.0,0.0,0.0,0.0,,0.0,0.0,0.0035460992907801418,0.016666666666666666,,0.5,0.0,0.05,,0.0,0.0,0.0,0.0,0.022727272727272728,0.5,0.0,0.004975124378109453,0.047619047619047616,,0.013574660633484163,0.0017730496453900709,0.0018587360594795538,0.0,,0.2,0.6666666666666666,0.045454545454545456,0.03048780487804878,0.0,0.5,0.0,,0.0,0.5,0.0,0.0,,0.0,0.0,0.0,0.125,0.0,0.017482517482517484,0.0,0.0,0.15384615384615385,0.0,0.0,0.0,0.0,0.008547008547008548,0.0,0.0,0.0,0.0,0.0,,0.0,0.0,,0.0,0.0,0.0,0.0,,0.0,0.03571428571428571,0.058823529411764705,0.0,,0.0,0.0,0.0,0.0,0.0,0.0,0.0,0.0,0.0,0.012738853503184714,0.0,0.0,0.0,,0.0,0.03529411764705882,0.0,0.013774104683195593,0.0,0.0,,0.0,0.0,0.05405405405405406,0.0,0.0,0.0,0.0,0.0,0.0,0.0,0.0,0.004,0.0,0.0,0.09090909090909091,0.0,0.16666666666666666,0.1,0.0,0.005128205128205128,0.0,0.003780718336483932,0.0,0.0,0.0,0.0,0.1111111111111111,0.006944444444444444,0.0,0.0,0.0,0.0,0.0,0.0,0.0,0.0,0.14285714285714285,0.017543859649122806,0.021021021021021023,0.0,0.0043859649122807015,0.0,0.0,0.0,0.0,0.0,,0.07142857142857142,0.0,0.0,0.0,0.0,0.0,0.0,0.0,0.0,0.0,0.0,0.0,0.05263157894736842,0.0,0.018518518518518517,0.008771929824561403,0.0,,0.0,0.0,0.016129032258064516,0.017241379310344827,0.0,0.0,0.0,0.018518518518518517,0.003246753246753247,0.03571428571428571,0.0,,0.0,0.0,0.0,0.025974025974025976,0.0,,0.0,0.0,0.005319148936170213,0.0,0.0,0.0,0.016129032258064516,0.0,0.0,,0.0,0.0,0.5,0.0,0.03225806451612903,0.0,0.0,0.0,0.0,0.011764705882352941,0.0,0.0,0.0,0.0,0.0,0.0,,0.6666666666666666,0.0196078431372549,0.0,0.0,0.0,0.0,0.0,0.0,0.0,0.0,0.0,0.0,0.0032258064516129032,0.0,0.0,0.0,0.0,0.0,0.0,,0.0,0.007067137809187279,0.0,0.0,0.008547008547008548,0.0,,,0.0,0.006802721088435374,,0.0,0.0,1.0,,0.0,0.0,,0.14285714285714285,,0.015625,0.0,0.0,0.0,0.023255813953488372,0.0,0.0,0.0,0.0,0.0,,0.0,0.0,0.5,,0.0,0.0,0.0
2016-01-13,0.0,,0.0,0.0,0.0,,0.0,0.0,0.0,,0.0,0.0,0.0,,0.0,,0.0,0.0,0.0,0.0,0.002944062806673209,0.0,0.025,0.0,0.0,0.0,0.0,0.0,,0.14285714285714285,0.3333333333333333,,0.0,0.0,0.0,0.0,0.0,0.0,0.0,0.0,0.012658227848101266,0.0,0.3333333333333333,0.0,0.0,0.0,0.0,0.0,0.05,0.0,0.09302325581395349,0.031746031746031744,0.008438818565400843,0.0,0.0,0.0,0.0,0.0,0.0,0.0,0.0,0.0,0.0,,0.02247191011235955,0.0,0.006153846153846154,0.0,,0.0,0.0,0.0,,0.0,0.0,0.0,0.0,0.022727272727272728,0.0,0.0,0.004975124378109453,0.09523809523809523,,0.01327433628318584,0.001763668430335097,0.0,0.0,,0.0,0.0,0.0,0.01812688821752266,0.0,0.0,0.0,,0.0,0.0,0.0,0.0,,0.0,0.0,0.0,0.0,0.0,0.010309278350515464,0.0,0.0,0.0,0.0,0.0,0.0,0.0,0.0,0.0,0.0,0.0,0.18181818181818182,0.0,,0.0,0.0,,0.0,0.0,0.0,0.0,,0.0,0.03571428571428571,0.0,0.0,,0.0,0.0,0.0,0.0,0.0,0.3333333333333333,0.0,0.0,0.0,0.0,0.0,0.0,0.0,,0.0,0.0,0.0,0.0,0.041666666666666664,0.0,,0.0,0.0,0.0,0.0,0.0,0.0,0.0,0.0,0.0,0.0,0.0,0.007751937984496124,0.0,0.0,0.09090909090909091,0.0,0.0,0.0,0.0,0.005089058524173028,0.0,0.007407407407407408,0.0,0.3333333333333333,0.0,0.0,0.0,0.003472222222222222,0.0,0.0,0.0,0.0,0.0,0.0,0.0,0.0,0.14285714285714285,0.017543859649122806,0.002967359050445104,0.0,0.017543859649122806,0.0,0.0,0.0,0.0,0.0,,0.0,0.0,0.010526315789473684,0.5,0.0,0.0,0.0,1.0,0.0,0.2,0.5,0.0,0.0,0.0,0.01812688821752266,0.008620689655172414,0.0,,0.0,0.0,0.016129032258064516,0.0,0.0,0.020833333333333332,0.0,0.037037037037037035,0.009836065573770493,0.0,0.0,,0.0,0.0,0.0,0.0,0.0,,0.0,0.0,0.002352941176470588,0.0,0.0,0.0,0.0,0.0,0.0,,0.0,0.0,0.0,0.10344827586206896,0.0,0.0,0.0,0.0,0.0,0.011363636363636364,0.0,0.0,0.0,0.03225806451612903,0.0,0.0,,0.0,0.0196078431372549,0.0,0.015151515151515152,0.0,0.0,0.058823529411764705,0.07142857142857142,0.0,0.0,0.0,0.0,0.0031446540880503146,0.03981264637002342,0.0,0.0,0.0,0.0,0.02727272727272727,,0.0,0.0035211267605633804,0.009345794392523364,0.0,0.00847457627118644,0.0,,,0.0,0.013157894736842105,,0.0,0.0,0.0,,0.0,0.11764705882352941,,0.0,,0.010526315789473684,0.0,0.0,0.0,0.0,0.0,0.0,0.0,0.0,0.0,,0.0,0.0,0.0,,0.0,0.0,0.0
2016-01-14,0.0,,0.0,0.0,0.0,,0.0,0.0,0.0,0.0,0.0,0.0,0.0,,0.04,,0.0,0.0,0.0,0.0,0.0019029495718363464,0.0,0.0,0.0,0.0,0.0,0.0,0.0,,0.0,0.0,,0.03125,0.0,0.0,0.0,0.0,0.0,0.0,0.025,0.021341463414634148,0.0,0.0,0.0,0.0,0.0,0.0,0.0,0.0,0.0,0.06818181818181818,0.047619047619047616,0.004166666666666667,0.0,0.0,0.0,0.0,0.5,0.0,0.0,0.0,0.0,0.0,,0.0,0.0,0.0,0.0,,0.0,0.0,0.0,,0.0,0.0,0.0,0.0,0.0,0.0,0.0,0.0,0.0,,0.004366812227074236,0.0033613445378151263,0.0035714285714285713,0.0,,0.0,0.0,0.0,0.0,0.0,0.0,0.0,,0.0,0.0,0.0,0.0,,0.0,0.0,0.0,0.0,0.0,0.0033112582781456954,0.0,0.0,0.07692307692307693,0.05,0.0,0.0,0.2,0.0,0.0,0.0,0.0,0.09090909090909091,0.0,,0.0,0.0,,0.0,0.0,0.1111111111111111,0.1111111111111111,,0.0,0.0,0.058823529411764705,0.05263157894736842,,0.0,0.3333333333333333,0.0,0.0,0.0,0.3333333333333333,0.0,0.0,0.0,0.0,0.0,0.0,0.0,,0.0,0.011627906976744186,0.0,0.002421307506053269,0.0,0.14285714285714285,,0.0,0.0,0.0,0.5,0.16666666666666666,0.0,0.0,0.0,0.0,0.0,0.0,0.0,0.0,0.0,0.0,0.0,0.16666666666666666,0.0,0.0,0.012254901960784314,0.0,0.01618705035971223,0.07142857142857142,0.0,0.0,0.0,0.0,0.013468013468013467,0.038461538461538464,0.0,0.0,0.0,0.0,0.0,0.0,0.0,0.0,0.017094017094017096,0.005813953488372093,0.0,0.0,0.0,0.0,0.0,0.125,0.0,,0.0,0.0,0.010416666666666666,0.0,0.0,0.125,0.0,1.0,0.0,0.0,0.0,0.0,0.0,0.0,0.005797101449275362,0.0,0.0,,0.0,0.0,0.008064516129032258,0.0,0.0,0.0,0.0,0.07272727272727272,0.004702194357366771,0.0,0.0,0.0,0.0,0.0,0.0,0.0,0.014492753623188406,,0.0,0.0,0.0045871559633027525,0.0,0.0,0.0,0.015151515151515152,0.0,0.0,,0.0,0.0,0.0,0.09375,0.0,0.0,0.0,0.0,0.16666666666666666,0.011235955056179775,0.0,0.046511627906976744,0.0,0.029411764705882353,0.0,0.0,,0.0,0.009615384615384616,0.0,0.009569377990430622,0.0,0.0,0.17647058823529413,0.07142857142857142,0.14285714285714285,0.0,0.0,0.0,0.006153846153846154,0.060133630289532294,0.0,0.0,0.0,0.3333333333333333,0.008771929824561403,,0.0,0.0033783783783783786,0.017857142857142856,0.0,0.02459016393442623,0.0,,,0.0,0.006578947368421052,,0.0,0.0,0.3333333333333333,,0.5,0.0,,0.0,,0.005025125628140704,0.0,0.0,0.0,0.0,0.0,0.0,0.0,0.0,0.0,,0.0,0.0,0.0,,0.0,0.0,0.0
2016-01-15,0.0,,0.0,0.0,0.0,,0.0,0.0,0.0,,0.0,0.0,0.0,,0.0,,0.0,0.0,0.5,0.21052631578947367,0.009523809523809525,0.1,0.0,0.0,0.0,0.0,0.0,0.0,,0.0,0.0,,0.0,0.0,0.0,0.0,0.0,0.0,0.0,0.0,0.0030581039755351682,0.3333333333333333,0.0,0.0,0.0,0.0,0.0,0.0,0.0,0.0,0.0,0.0,0.0,0.0,0.0,0.058823529411764705,0.0,0.0,0.07142857142857142,0.0,0.0,0.0,0.0,,0.010416666666666666,0.0,0.003067484662576687,0.01639344262295082,,0.0,0.0,0.0,,0.0,0.0,0.0,0.0,0.02127659574468085,0.5,0.0,0.0,0.0,,0.008771929824561403,0.0033613445378151263,0.0017761989342806395,0.0,,0.0,0.0,0.0,0.008875739644970414,0.0,0.0,0.0,,0.0,0.0,0.0,0.03333333333333333,,0.0,0.0,0.0,0.0,0.0,0.0033112582781456954,0.0,0.0,0.0,0.15,0.0,0.0,0.0,0.024096385542168676,0.0,0.0,0.0,0.09090909090909091,0.0,,0.0,0.0,,0.0,0.0,0.0,0.0,,0.0,0.0,0.0,0.0,,0.0,0.0,0.0,0.0,0.0,0.0,0.0,0.007633587786259542,0.0,0.0,0.05263157894736842,0.0,0.0,,0.0,0.023255813953488372,0.0,0.0024390243902439024,0.0,0.0,,0.0,0.0,0.0,0.0,0.0,0.0,0.0,0.0,0.0,0.0,0.0,0.007547169811320755,0.0,0.0,0.08333333333333333,0.03125,0.0,0.0,0.0,0.004842615012106538,0.0,0.0017953321364452424,0.0,0.0,0.0,0.0,0.0,0.006779661016949152,0.0,0.0,0.0,0.0,0.0,0.0,0.0,0.0,0.0,0.008547008547008548,0.008620689655172414,0.0,0.0,0.0,0.0,0.0,0.0,0.0,,0.0,0.035175879396984924,0.0,0.0,0.0,0.0,0.1111111111111111,0.0,0.0,0.0,0.0,0.0,0.0,0.0,0.0,0.0,0.0,,0.0,0.0,0.008,0.0,0.0,0.061224489795918366,0.0,0.0,0.0031397174254317113,0.0,0.0,0.0,0.0,0.0,0.0,0.05,0.007142857142857143,,0.0,0.010526315789473684,0.0045871559633027525,0.0,0.0,0.0,0.0,0.5,0.0,0.0,0.0,0.0,0.0,0.029411764705882353,0.030303030303030304,0.0,0.0,0.5,0.0,0.03333333333333333,0.0,0.0,0.0,0.0,0.16666666666666666,0.0,,0.0,0.07692307692307693,0.0,0.009708737864077669,0.0125,0.0,0.0,0.0,0.0,0.0,0.0,0.0,0.003076923076923077,0.0,0.1111111111111111,0.0,0.0,0.0,0.0,,0.014492753623188406,0.0,0.0,0.0,0.01639344262295082,0.0,,,0.0,0.0,,0.0,0.0,0.0,,0.0,0.0,,0.0,,0.005050505050505051,0.0,0.0,0.0,0.02127659574468085,0.0,0.0,0.0,0.0,0.0,,0.0,0.0,0.0,,0.07142857142857142,0.0,0.0
2016-01-16,0.0,,0.0,0.0,0.0,,0.0,0.0,0.1,,0.0,0.0,0.0,,0.0,,0.0,0.0,0.0,0.15,0.0014285714285714286,0.0,0.011494252873563218,0.0,0.0,0.0,0.022727272727272728,0.0,,0.0,0.0,,0.0,0.0,0.0,0.0,0.0,0.0,0.0,0.0,0.009615384615384616,0.0,0.0,0.0,0.0,0.0,0.0,0.0,0.0,0.0,0.024390243902439025,0.0,0.01932367149758454,0.0,0.0,0.0,0.0,0.0,0.0,0.25,0.0,0.0,0.0,,0.0,0.0,0.0,0.022727272727272728,,0.5,0.0,0.0,,0.0,0.16666666666666666,0.0,0.0,0.0,0.0,0.0,0.0,0.0,,0.013333333333333334,0.006756756756756757,0.004434589800443459,0.0,,0.0,0.5,0.0,0.017937219730941704,0.0,0.0,0.0,,0.0,0.0,0.0,0.045454545454545456,,0.0,0.0,0.0,0.0,0.0,0.016304347826086956,0.0,0.0,0.1,0.0,0.0,0.0,0.0,0.07058823529411765,0.0,0.0,0.0,0.0,0.0,,0.0,0.0,,0.0,0.0,0.0,0.0,,0.0,0.0,0.0,0.0,,0.25,0.0,0.0,0.0,0.125,0.0,0.0,0.0,0.0,0.0,0.0,0.0,0.0,,0.0,0.016666666666666666,0.0,0.0070921985815602835,0.0,0.0,,0.0,0.0,0.017857142857142856,0.0,0.0,0.0,0.0,0.0,0.0,0.0,0.0,0.008968609865470852,0.0,0.0,0.09090909090909091,0.02857142857142857,0.0,0.0,0.0,0.0113314447592068,0.0,0.009216589861751152,0.0,0.3333333333333333,0.0,0.0,0.0,0.050955414012738856,0.0,0.0,0.0,0.0,0.0,0.0,0.0,0.0,0.0,0.0,0.014245014245014245,0.0,0.0,0.0,0.0,0.0,0.0,0.0,,0.0,0.04145077720207254,0.015873015873015872,0.0,0.0,0.0,0.0,0.0,0.0,0.2,0.0,0.0,0.0,0.0,0.0,0.010309278350515464,0.0,,0.0,0.0,0.011235955056179775,0.03076923076923077,0.03571428571428571,0.0,0.0,0.0,0.004291845493562232,0.0,0.0,,0.0,0.0,0.0,0.02857142857142857,0.017857142857142856,,0.0,0.0,0.005249343832020997,0.0,0.0,0.0,0.0,0.0,0.0,,0.0,0.0,0.0,0.0,0.0,0.0,0.0,0.0,0.0,0.0,0.0,0.0,0.0,0.0,0.0,0.0,0.0,0.0,0.0,0.0,0.013422818791946308,0.0,0.0,0.0,0.1111111111111111,0.0,0.0,0.0,0.0,0.007518796992481203,0.005988023952095809,0.0,0.0,0.0,0.0,0.0,,0.023809523809523808,0.004761904761904762,0.0,0.5,0.0,0.0,,,0.0,0.009523809523809525,,0.0,0.0,0.8,,0.0,0.0,,0.0,,0.0056179775280898875,0.0,0.0,0.0,0.021739130434782608,0.0,0.0,0.0,0.0,0.0,,0.0,0.0,0.0,,0.0,0.0,0.0
2016-01-17,0.0,,0.0,0.0,0.0,,0.0,0.25,0.0,0.0,0.0,0.0,0.0,,0.0,,0.14285714285714285,0.02631578947368421,0.0,0.09090909090909091,0.0012658227848101266,0.0,0.0,0.0,0.0,0.0,0.0,0.0,,0.0,0.0,,0.041666666666666664,0.0,0.0,0.0,0.0,0.0,0.0,0.0,0.004132231404958678,0.0,0.0,0.0,1.0,0.0,0.0,0.0,0.0,0.0,0.0,0.058823529411764705,0.0049504950495049506,0.0,0.0,0.0,0.0,0.0,0.0,0.0,0.0,0.125,0.0,,0.013333333333333334,0.0,0.0035335689045936395,0.0,,0.5,0.0,0.0,,0.0,0.0,0.0,0.0,0.0,0.0,0.0,0.011560693641618497,0.0,,0.010810810810810811,0.009615384615384616,0.0019646365422396855,0.0,,0.0,0.0,0.0,0.0,0.0,0.0,0.0,,0.0,0.0,0.0,0.0,,0.5,0.0,0.1111111111111111,0.0,0.0,0.008771929824561403,0.0,0.0,0.0,0.05,0.0,0.0,0.0,0.0,0.0,0.0,0.0,0.0,0.0,,0.0,0.0,,0.0,0.0,0.0,0.0,,0.0,0.0,0.0,0.07692307692307693,,0.0,0.0,0.0,0.0,0.0,0.5,0.0,0.0,0.0,0.007575757575757576,0.0,0.0,0.0,,0.0,0.0,0.0,0.005698005698005698,0.043478260869565216,0.0,,0.0,0.0,0.0,1.0,0.0,0.0,0.0,0.0,0.0,0.0,0.0,0.015625,0.0,0.0,0.09090909090909091,0.0,0.0,0.0,0.0,0.0,0.0,0.004149377593360996,0.0,0.0,0.0,0.0,0.0,0.005208333333333333,0.08,0.0,0.0,0.0,0.0,0.0,0.0,0.0,0.0,0.010638297872340425,0.006006006006006006,0.0,0.005263157894736842,0.0,0.0,0.0,0.125,0.0,,0.0,0.005076142131979695,0.01282051282051282,0.0,0.0,0.0,0.0,0.0,0.0,0.0,0.0,0.14285714285714285,0.0,0.0,0.0,0.018518518518518517,0.16666666666666666,,0.0,0.0,0.0,0.0,0.0,0.0,0.0,0.020833333333333332,0.008976660682226212,0.043478260869565216,0.0,0.0,0.0,0.0,0.0,0.0,0.016260162601626018,,0.0,0.0,0.0024630541871921183,0.0,0.0,0.0,0.0,1.0,0.0,,0.0,0.0,0.0,0.030303030303030304,0.0,0.0,0.0,0.0,0.2,0.014492753623188406,0.0,0.0,0.5,0.0,0.0,0.0,,0.0,0.0,0.0,0.016216216216216217,0.0,0.0,0.125,0.0,0.14285714285714285,0.0,0.0,0.0,0.0,0.0472636815920398,0.0,0.0,0.0,0.3333333333333333,0.03296703296703297,,0.0,0.00819672131147541,0.022222222222222223,0.5,0.02040816326530612,0.0,,,0.0,0.0,,0.0,0.0,0.0,,0.0,0.0,,0.0,,0.010810810810810811,0.0,0.0,0.0,0.021739130434782608,0.0,0.0,0.0,0.0,0.0,,0.0,0.0,0.0,,0.14285714285714285,0.0,0.0
2016-01-18,0.0,,0.0,0.0,0.0,,0.0,0.0,0.0,,0.0,0.0,0.0,,0.0,,0.2222222222222222,0.0,0.0,0.0,0.0009624639076034649,0.0,0.016260162601626018,0.0,0.0,0.0,0.0,0.0,,0.0,0.0,,0.03125,0.0,0.16666666666666666,0.0,0.0,0.0,0.0,0.0,0.00949367088607595,0.0,0.0,0.0,0.0,0.0,0.0,0.0,0.0,0.0,0.0,0.016129032258064516,0.0,0.0,0.0,0.0,0.0,0.0,0.0,0.0,0.0,0.0,0.0,,0.01020408163265306,0.0,0.007017543859649123,0.015873015873015872,,0.0,0.0,0.08695652173913043,,0.0,0.0,0.0,0.0,0.020833333333333332,0.0,0.0,0.004975124378109453,0.0,,0.0228310502283105,0.01020408163265306,0.0017857142857142857,0.0,,0.0,0.0,0.0,0.00911854103343465,0.0,0.0,0.0,,0.0,0.5,0.0,0.0,,0.0,0.0,0.0,0.0,0.0,0.003389830508474576,0.0,0.0,0.0,0.0,0.0,0.0,0.0,0.004032258064516129,0.0,0.0,0.0,0.09090909090909091,0.0,,0.03333333333333333,0.0,,0.0,0.0,0.0,0.0,,0.0,0.0,0.058823529411764705,0.0,,0.0,0.0,0.0,0.0,0.0,0.0,0.0,0.0,0.0,0.0,0.0,0.0,0.0,,0.0,0.011904761904761904,0.0,0.0,0.0,0.14285714285714285,,0.0,0.0,0.0,0.0,0.0,0.0,0.0,0.0,0.0,0.0,0.018867924528301886,0.0037313432835820895,0.0,0.0,0.0,0.0,0.0,0.0,0.0,0.007425742574257425,0.0,0.007272727272727273,0.0,0.0,0.0,0.07692307692307693,0.0,0.06115107913669065,0.0,0.0,0.0,0.0,0.0,0.0,0.0,0.05555555555555555,0.0,0.008547008547008548,0.0,0.0,0.013215859030837005,0.0,0.0,0.0,0.0,0.0,,0.07142857142857142,0.0,0.010416666666666666,0.0,0.0,0.0,0.0,1.0,0.0,0.0,0.0,0.0,0.047619047619047616,0.0,0.0058997050147492625,0.0,0.0,,0.0,0.0,0.008130081300813009,0.017241379310344827,0.0,0.0,0.0,0.0,0.007911392405063292,0.0,0.0,0.0,0.0,0.0,0.0,0.0125,0.0,,0.0,0.015873015873015872,0.0,0.0,0.0,0.0,0.015625,0.0,0.0,0.0,0.1,0.0,0.0,0.0,0.0,0.0,0.0,0.0,0.0,0.023809523809523808,0.0,0.05,0.0,0.0,0.0,0.09523809523809523,,0.0,0.0,0.0,0.014423076923076924,0.0,0.05555555555555555,0.0,0.0,0.0,0.0,0.0,0.0,0.003115264797507788,0.004545454545454545,0.1111111111111111,0.0,0.0,0.0,0.008771929824561403,,0.0,0.006756756756756757,0.0,0.0,0.0,0.0,,,0.0,0.0,,0.0,0.0,1.0,,0.0,0.06666666666666667,,0.0,,0.01015228426395939,0.0,0.0,0.0,0.0,0.0,0.0,0.0,0.0,0.0,,0.0,0.0,0.0,,0.07142857142857142,0.0,0.0
2016-01-19,0.0,,0.0,0.0,0.0,,0.0,0.25,0.0,,0.0,0.0,0.0,,0.0,,0.0,0.0,0.5,0.0,0.0,0.1111111111111111,0.0,0.0,0.0,0.0,0.0,0.0,,0.0,0.0,,0.0,0.0,0.0,0.0,0.0,0.0,0.007462686567164179,0.05263157894736842,0.015723270440251572,0.0,0.0,0.0,0.0,0.0,0.0,0.0,0.0,0.25,0.023809523809523808,0.09523809523809523,0.0,0.0,0.06666666666666667,0.0,0.0,0.0,0.0,0.0,0.0,0.0,0.0,,0.0,0.0,0.0,0.03225806451612903,,0.0,0.0,0.0,,0.0,0.0,0.0,0.0,0.0,0.0,0.0,0.0,0.0,,0.00904977375565611,0.0017730496453900709,0.0055658627087198514,0.0,,0.0,0.0,0.0,0.0060790273556231,0.0,0.0,0.0,,0.0,0.5,0.0,0.03225806451612903,,0.5,0.0,0.2,0.0,0.0,0.010380622837370242,0.0,0.0,0.0,0.21052631578947367,0.0,0.0,0.0,0.0,0.0,0.0,0.0,0.09090909090909091,0.0,,0.0,0.0,,0.0,0.0,0.0,0.125,,0.0,0.0,0.0,0.0,,0.0,0.0,0.0,0.0,0.0,0.0,0.0,0.0,0.0,0.006369426751592357,0.0,0.0,0.0,,0.0,0.0,0.0,0.0027548209366391185,0.0,0.0,,0.0,0.0,0.0,0.0,0.0,0.0,0.0,0.0,0.0,0.0,0.0,0.003952569169960474,0.0,0.0,0.0,0.0,0.0,0.0,0.0,0.010230179028132993,0.0,0.015151515151515152,0.0,0.0,0.0,0.0,0.0,0.03832752613240418,0.0,0.0,0.0,0.0,0.0,0.0,0.0,0.058823529411764705,0.0,0.0,0.002976190476190476,0.0,0.0043859649122807015,0.0,0.02564102564102564,0.0,0.125,0.0,,0.0,0.0,0.0,0.0,0.0,0.0,0.0,0.0,0.0,0.0,0.0,0.0,0.0,0.0,0.012345679012345678,0.008695652173913044,0.0,,0.2857142857142857,0.0,0.008064516129032258,0.0,0.020833333333333332,0.02127659574468085,0.0,0.037037037037037035,0.0016420361247947454,0.034482758620689655,0.0,,0.0,0.0,0.0,0.0,0.015267175572519083,,0.0,0.0,0.01282051282051282,0.0,0.0,0.0,0.0,0.0,0.0,,0.0,0.0,0.0,0.10714285714285714,0.03125,0.08333333333333333,0.0,0.0,0.0,0.0,0.0,0.02631578947368421,0.0,0.0,0.0,0.05,,0.0,0.009708737864077669,0.0,0.02577319587628866,0.012658227848101266,0.0,0.13333333333333333,0.0,0.14285714285714285,0.0,0.0,0.0,0.00641025641025641,0.08254716981132075,0.0,0.0,0.0,0.0,0.00909090909090909,,0.0,0.014134275618374558,0.05555555555555555,0.5,0.017094017094017096,0.0,,,0.0,0.006802721088435374,,0.0,0.0,0.6666666666666666,,0.0,0.0,,0.0,,0.005235602094240838,0.0,0.0,0.0,0.023255813953488372,0.0,0.0,0.0,0.0,0.0,,0.0,0.0,0.0,,0.0,0.0,0.0
2016-01-20,0.0,,0.0,0.0,0.0,,0.0,0.0,0.0,,0.0,0.0,0.0,,0.0,,0.0,0.0,0.5,0.1111111111111111,0.0068694798822374874,0.0,0.008264462809917356,0.14285714285714285,0.0,0.0,0.0,0.0,,0.0,0.0,,0.0,0.0,0.0,0.0,0.0,0.0,0.14814814814814814,0.0,0.0,0.0,0.0,0.0,0.0,0.0,0.0,0.0,0.0,0.0,0.0,0.031746031746031744,0.0,0.0,0.0,0.058823529411764705,0.0,0.0,0.0,0.16666666666666666,0.02857142857142857,0.0,0.0,,0.011111111111111112,0.0,0.0,0.0,,0.0,0.0,0.0,,0.0,0.0,0.14285714285714285,0.0,0.046511627906976744,0.0,0.0,0.004975124378109453,0.05263157894736842,,0.013100436681222707,0.008802816901408451,0.005494505494505495,0.0,,0.0,0.0,0.0,0.006042296072507553,0.0,0.0,0.0,,0.1111111111111111,0.0,0.0,0.0,,0.0,0.0,0.0,0.0,0.0,0.006896551724137931,0.0,0.0,0.0,0.05,0.0,0.0,0.0,0.0,0.0,0.0,0.0,0.0,0.0,,0.03571428571428571,0.0,,0.0,0.0,0.0,0.0,,0.0,0.0,0.0,0.0,,0.0,0.3333333333333333,0.0,0.0,0.0,0.0,0.0,0.0,0.0,0.006369426751592357,0.0,0.0,0.09090909090909091,,0.5,0.0,0.0,0.0,0.0,0.0,,0.0,0.0,0.013513513513513514,0.0,0.4,0.0,0.0,0.0,0.0,0.0,0.0196078431372549,0.00392156862745098,0.0,0.0,0.0,0.0,0.0,0.0,0.0,0.0025380710659898475,0.0,0.014842300556586271,0.0,0.0,0.0,0.0,0.0,0.010416666666666666,0.043478260869565216,0.0,0.0,0.0,0.0,0.0,0.0,0.0,0.0,0.008695652173913044,0.008823529411764706,0.0,0.004405286343612335,0.0,0.0,0.0,0.0,0.0,,0.0,0.0,0.0,0.0,0.0,0.0,0.0,0.0,0.0,0.0,0.0,0.0,0.0,0.0,0.0030211480362537764,0.0,0.0,,0.0,0.0,0.024193548387096774,0.0,0.0,0.0,0.0,0.0,0.0016556291390728477,0.0,0.0,,0.0,0.5,0.0,0.0,0.0,,0.0,0.0,0.011764705882352941,0.1111111111111111,0.0,0.0,0.0,0.0,0.0,,0.1,0.0,0.0,0.0,0.0,0.0,0.0,0.0,0.0,0.0,0.0,0.0,0.0,0.0,0.0,0.05,,0.0,0.0,0.0,0.015151515151515152,0.0,0.0,0.0,0.0,0.0,0.0,0.0,0.08695652173913043,0.0,0.014018691588785047,0.0,0.0,0.0,0.0,0.00909090909090909,,0.0,0.0,0.0,0.0,0.00847457627118644,0.25,,,0.0,0.006622516556291391,,0.0,0.0,0.25,,0.0,0.0,,0.0,,0.010582010582010581,0.0,0.0,0.0,0.0,0.0,0.0,0.0,0.0,0.125,,0.0,0.0,0.0,,0.14285714285714285,0.0,0.16666666666666666
2016-01-21,0.0,,0.02040816326530612,0.0,0.0,,0.0,0.0,0.0,0.0,0.0,0.0,0.0,,0.0,,0.0,0.0,0.0,0.05263157894736842,0.004748338081671415,0.0,0.0,0.0,0.0,0.0,0.0,0.0,,0.2857142857142857,0.0,,0.0,0.0,0.0,0.0,0.0,0.0,0.014388489208633094,0.0,0.0030581039755351682,0.0,0.0,0.0,0.0,0.0,0.0,0.0,0.0,0.0,0.022727272727272728,0.0,0.008403361344537815,0.0,0.0,0.0,0.0,0.0,0.0,0.0,0.0,0.0,0.0,,0.010416666666666666,0.0,0.012269938650306749,0.0,,0.0,0.0,0.043478260869565216,,0.0,0.0,0.0,0.0,0.020833333333333332,0.0,0.0,0.01990049751243781,0.0,,0.008733624454148471,0.008389261744966443,0.023172905525846704,0.0,,0.16666666666666666,0.0,0.0,0.014705882352941176,0.0,0.0,0.0,,0.0,0.0,0.14285714285714285,0.0,,0.0,0.0,0.0,0.0,0.0,0.0033112582781456954,0.16666666666666666,0.0,0.0,0.0,0.0,0.0,0.0,0.008064516129032258,0.0,0.0,0.0,0.09090909090909091,0.0,,0.0,0.0,,0.0,0.14285714285714285,0.0,0.0,,0.0,0.0,0.0,0.0,,0.0,0.0,0.0,0.0,0.0,0.0,0.0,0.0,0.0,0.01910828025477707,0.0,0.0,0.0,,0.0,0.023255813953488372,0.0,0.004819277108433735,0.0,0.0,,0.0,0.5,0.0,0.0,0.0,0.0,0.0,0.0,0.0,0.0625,0.019230769230769232,0.003676470588235294,0.5,0.0,0.09090909090909091,0.0,0.0,0.0,0.0,0.004901960784313725,0.0,0.012567324955116697,0.0,0.0,0.0,0.0,0.0,0.016778523489932886,0.0,0.0,0.0,0.0,0.0,0.5,0.5,0.0,0.0,0.008547008547008548,0.00872093023255814,0.0,0.022026431718061675,0.6666666666666666,0.0,0.0,0.0,0.0,,0.0,0.005025125628140704,0.010526315789473684,0.0,0.0,0.0,0.1111111111111111,0.0,0.0,0.0,0.0,0.0,0.0,0.0,0.017391304347826087,0.03333333333333333,0.0,,0.0,0.0,0.016129032258064516,0.0,0.0,0.0,0.0,0.0,0.007874015748031496,0.034482758620689655,0.5,0.0,0.0,0.0,0.0,0.0,0.014598540145985401,,0.0,0.021164021164021163,0.006880733944954129,0.0,0.5,0.0,0.015151515151515152,0.0,0.0,,0.0,0.0,0.0,0.03125,0.0,0.0,0.0,0.0,0.0,0.022988505747126436,0.0,0.0,0.0,0.0,0.0,0.0,,0.0,0.009615384615384616,0.0,0.019138755980861243,0.0,0.0,0.0,0.07142857142857142,0.0,0.0,0.0,0.038461538461538464,0.009202453987730062,0.0022271714922048997,0.0,0.0,0.0,0.3333333333333333,0.0,,0.0,0.003367003367003367,0.008849557522123894,0.0,0.0,0.0,,,0.0,0.013071895424836602,,0.0,0.0,0.0,,0.0,0.058823529411764705,,0.0,,0.02030456852791878,0.0,0.0,0.0,0.0,0.0,0.0,0.0,0.0,0.0,,0.3333333333333333,0.08333333333333333,0.0,,0.0,0.0,0.0
