FL_DATE,ABE,ABI,ABQ,ABR,ABY,ACK,ACT,ACV,ACY,ADK,ADQ,AEX,AGS,AKN,ALB,ALO,AMA,ANC,APN,ASE,ATL,ATW,AUS,AVL,AVP,AZO,BDL,BET,BFF,BFL,BGM,BGR,BHM,BIL,BIS,BJI,BLI,BMI,BNA,BOI,BOS,BPT,BQK,BQN,BRD,BRO,BRW,BTM,BTR,BTV,BUF,BUR,BWI,BZN,CAE,CAK,CDC,CDV,CHA,CHO,CHS,CID,CIU,CKB,CLE,CLL,CLT,CMH,CMI,CMX,COD,COS,COU,CPR,CRP,CRW,CSG,CVG,CWA,DAB,DAL,DAY,DBQ,DCA,DEN,DFW,DHN,DLG,DLH,DRO,DSM,DTW,DVL,EAU,ECP,EFD,EGE,EKO,ELM,ELP,ENV,ERI,ESC,EUG,EVV,EWN,EWR,EYW,FAI,FAR,FAT,FAY,FCA,FLG,FLL,FNT,FSD,FSM,FWA,GCC,GCK,GEG,GFK,GGG,GJT,GNV,GPT,GRB,GRI,GRK,GRR,GSO,GSP,GST,GTF,GTR,GUC,GUM,HDN,HIB,HLN,HNL,HOB,HOU,HPN,HRL,HSV,HYA,HYS,IAD,IAG,IAH,ICT,IDA,IFP,ILM,IMT,IND,INL,ISN,ISP,ITH,ITO,JAC,JAN,JAX,JFK,JLN,JMS,JNU,KOA,KTN,LAN,LAR,LAS,LAW,LAX,LBB,LBE,LCH,LEX,LFT,LGA,LGB,LIH,LIT,LNK,LRD,LSE,LWS,MAF,MBS,MCI,MCO,MDT,MDW,MEI,MEM,MFE,MFR,MGM,MHK,MHT,MIA,MKE,MKG,MLB,MLI,MLU,MMH,MOB,MOT,MQT,MRY,MSN,MSO,MSP,MSY,MTJ,MVY,MYR,OAJ,OAK,OGG,OKC,OMA,OME,ONT,ORD,ORF,ORH,OTH,OTZ,PAH,PBG,PBI,PDX,PGD,PHF,PHL,PHX,PIA,PIB,PIH,PIT,PLN,PNS,PPG,PSC,PSE,PSG,PSP,PVD,PWM,RAP,RDD,RDM,RDU,RHI,RIC,RKS,RNO,ROA,ROC,ROW,RST,RSW,SAF,SAN,SAT,SAV,SBA,SBN,SBP,SCC,SCE,SDF,SEA,SFO,SGF,SGU,SHV,SIT,SJC,SJT,SJU,SLC,SMF,SMX,SNA,SPI,SPN,SPS,SRQ,STL,STS,STT,STX,SUN,SUX,SWF,SYR,TKI,TLH,TOL,TPA,TRI,TTN,TUL,TUS,TVC,TWF,TXK,TYR,TYS,UST,VLD,VPS,WRG,WYS,XNA,YAK,YUM
2015-12-01,8.0,7.0,55.0,2.0,3.0,,5.0,4.0,8.0,,1.0,9.0,8.0,,24.0,2.0,9.0,38.0,2.0,1.0,1072.0,8.0,130.0,7.0,5.0,6.0,57.0,3.0,,9.0,2.0,1.0,36.0,9.0,10.0,2.0,3.0,9.0,147.0,38.0,331.0,3.0,3.0,4.0,2.0,6.0,3.0,2.0,22.0,11.0,55.0,60.0,268.0,8.0,16.0,19.0,2.0,2.0,15.0,7.0,40.0,18.0,2.0,,102.0,7.0,281.0,77.0,7.0,2.0,1.0,17.0,4.0,3.0,11.0,8.0,3.0,56.0,5.0,4.0,201.0,26.0,3.0,233.0,561.0,664.0,4.0,,6.0,5.0,26.0,347.0,1.0,2.0,11.0,,1.0,2.0,7.0,37.0,,2.0,2.0,10.0,14.0,2.0,323.0,7.0,6.0,18.0,19.0,6.0,4.0,4.0,225.0,14.0,15.0,6.0,15.0,3.0,2.0,29.0,3.0,2.0,8.0,8.0,8.0,15.0,2.0,11.0,31.0,18.0,20.0,,4.0,3.0,,1.0,,3.0,4.0,118.0,1.0,164.0,22.0,8.0,11.0,,2.0,94.0,1.0,390.0,24.0,7.0,,7.0,2.0,86.0,2.0,6.0,13.0,,17.0,5.0,22.0,58.0,263.0,2.0,2.0,11.0,27.0,6.0,8.0,2.0,395.0,4.0,549.0,14.0,2.0,6.0,18.0,12.0,285.0,24.0,28.0,32.0,9.0,7.0,7.0,2.0,18.0,5.0,121.0,328.0,11.0,240.0,3.0,49.0,6.0,8.0,11.0,5.0,18.0,197.0,94.0,2.0,4.0,10.0,10.0,,16.0,7.0,1.0,8.0,26.0,6.0,343.0,119.0,1.0,,7.0,3.0,137.0,56.0,49.0,53.0,2.0,54.0,872.0,28.0,2.0,,2.0,2.0,1.0,73.0,142.0,,4.0,194.0,437.0,17.0,2.0,2.0,72.0,2.0,15.0,,10.0,2.0,2.0,29.0,36.0,12.0,7.0,2.0,7.0,97.0,3.0,44.0,2.0,35.0,7.0,24.0,2.0,7.0,84.0,3.0,199.0,88.0,20.0,16.0,12.0,7.0,3.0,2.0,29.0,328.0,454.0,18.0,6.0,19.0,3.0,114.0,5.0,72.0,276.0,109.0,2.0,120.0,5.0,,3.0,10.0,149.0,,9.0,2.0,2.0,2.0,2.0,21.0,,10.0,3.0,192.0,7.0,8.0,41.0,43.0,6.0,2.0,3.0,8.0,21.0,,3.0,13.0,2.0,,30.0,2.0,6.0
2015-12-02,6.0,7.0,55.0,2.0,3.0,,5.0,4.0,8.0,,1.0,9.0,8.0,,27.0,2.0,7.0,37.0,2.0,4.0,1066.0,8.0,130.0,6.0,5.0,7.0,57.0,3.0,,9.0,3.0,1.0,36.0,8.0,9.0,2.0,4.0,9.0,150.0,39.0,329.0,3.0,3.0,4.0,2.0,5.0,2.0,2.0,22.0,14.0,53.0,60.0,271.0,8.0,16.0,18.0,2.0,2.0,15.0,7.0,37.0,21.0,2.0,,97.0,7.0,320.0,75.0,7.0,2.0,1.0,19.0,4.0,2.0,11.0,7.0,3.0,57.0,5.0,4.0,201.0,27.0,3.0,233.0,569.0,671.0,4.0,,7.0,6.0,26.0,356.0,2.0,2.0,11.0,,1.0,2.0,7.0,33.0,,2.0,2.0,10.0,14.0,2.0,347.0,8.0,5.0,17.0,17.0,6.0,4.0,5.0,226.0,14.0,14.0,6.0,16.0,3.0,2.0,29.0,4.0,2.0,9.0,9.0,8.0,13.0,2.0,11.0,29.0,18.0,23.0,,6.0,3.0,,1.0,,3.0,4.0,120.0,1.0,164.0,21.0,9.0,13.0,,2.0,94.0,1.0,392.0,23.0,7.0,,7.0,2.0,86.0,2.0,7.0,13.0,,16.0,5.0,22.0,59.0,257.0,2.0,3.0,11.0,29.0,6.0,8.0,2.0,389.0,4.0,547.0,14.0,2.0,6.0,18.0,14.0,282.0,22.0,28.0,30.0,8.0,7.0,7.0,2.0,20.0,5.0,119.0,323.0,9.0,239.0,3.0,45.0,8.0,8.0,11.0,5.0,20.0,203.0,94.0,2.0,4.0,7.0,9.0,,16.0,6.0,1.0,8.0,27.0,4.0,344.0,118.0,1.0,,7.0,3.0,134.0,58.0,51.0,52.0,2.0,52.0,858.0,29.0,2.0,,2.0,2.0,1.0,68.0,148.0,,4.0,199.0,426.0,17.0,2.0,2.0,75.0,2.0,15.0,,10.0,2.0,2.0,26.0,38.0,13.0,5.0,2.0,7.0,100.0,3.0,48.0,2.0,35.0,8.0,23.0,3.0,7.0,79.0,3.0,196.0,85.0,19.0,17.0,14.0,7.0,2.0,2.0,29.0,329.0,450.0,18.0,5.0,19.0,3.0,115.0,5.0,68.0,279.0,110.0,2.0,121.0,4.0,,3.0,10.0,149.0,,10.0,2.0,2.0,2.0,2.0,23.0,,10.0,3.0,191.0,7.0,9.0,40.0,41.0,7.0,2.0,3.0,8.0,18.0,1.0,3.0,13.0,2.0,,29.0,2.0,6.0
2015-12-03,7.0,7.0,54.0,2.0,3.0,,5.0,4.0,10.0,1.0,1.0,10.0,8.0,,27.0,2.0,8.0,41.0,2.0,5.0,1079.0,8.0,134.0,6.0,5.0,7.0,58.0,3.0,,9.0,3.0,1.0,37.0,7.0,11.0,2.0,2.0,9.0,149.0,39.0,337.0,3.0,3.0,3.0,2.0,7.0,2.0,2.0,22.0,14.0,56.0,61.0,273.0,7.0,17.0,18.0,2.0,2.0,15.0,7.0,36.0,21.0,2.0,,103.0,8.0,325.0,75.0,7.0,2.0,1.0,22.0,4.0,3.0,12.0,8.0,3.0,63.0,5.0,4.0,202.0,27.0,3.0,238.0,591.0,685.0,4.0,,7.0,8.0,27.0,360.0,2.0,2.0,11.0,,1.0,2.0,7.0,34.0,,2.0,2.0,10.0,14.0,2.0,359.0,8.0,5.0,18.0,18.0,6.0,4.0,5.0,233.0,14.0,14.0,6.0,16.0,3.0,2.0,29.0,4.0,2.0,9.0,9.0,9.0,13.0,2.0,12.0,29.0,19.0,24.0,,6.0,3.0,,1.0,,3.0,4.0,122.0,2.0,164.0,22.0,10.0,14.0,,2.0,94.0,1.0,444.0,24.0,7.0,,7.0,2.0,88.0,2.0,7.0,13.0,,17.0,5.0,22.0,59.0,263.0,2.0,3.0,11.0,29.0,6.0,8.0,2.0,401.0,4.0,562.0,15.0,3.0,7.0,19.0,16.0,286.0,25.0,29.0,31.0,8.0,7.0,7.0,2.0,20.0,5.0,121.0,336.0,9.0,239.0,3.0,44.0,7.0,8.0,11.0,5.0,21.0,213.0,94.0,2.0,4.0,10.0,9.0,,17.0,6.0,1.0,8.0,26.0,6.0,349.0,120.0,,,7.0,3.0,135.0,59.0,53.0,52.0,2.0,53.0,885.0,31.0,2.0,1.0,2.0,2.0,1.0,69.0,149.0,,4.0,201.0,431.0,17.0,2.0,2.0,78.0,2.0,15.0,,10.0,2.0,2.0,27.0,38.0,14.0,5.0,2.0,7.0,101.0,3.0,53.0,2.0,35.0,8.0,24.0,3.0,7.0,86.0,3.0,207.0,92.0,19.0,17.0,14.0,7.0,2.0,2.0,29.0,331.0,464.0,19.0,5.0,18.0,3.0,118.0,5.0,72.0,291.0,112.0,2.0,127.0,5.0,,3.0,10.0,148.0,,10.0,2.0,2.0,2.0,2.0,23.0,,10.0,3.0,196.0,7.0,9.0,42.0,44.0,6.0,2.0,3.0,8.0,19.0,,3.0,13.0,2.0,,29.0,2.0,6.0
2015-12-04,7.0,7.0,53.0,2.0,3.0,,5.0,4.0,10.0,,1.0,10.0,8.0,,27.0,2.0,7.0,40.0,2.0,5.0,1074.0,8.0,137.0,7.0,5.0,7.0,57.0,3.0,,9.0,3.0,1.0,37.0,7.0,10.0,2.0,4.0,9.0,149.0,39.0,338.0,3.0,3.0,4.0,2.0,7.0,3.0,2.0,22.0,14.0,55.0,61.0,265.0,8.0,17.0,18.0,2.0,2.0,15.0,7.0,38.0,20.0,2.0,,103.0,8.0,329.0,74.0,7.0,2.0,1.0,22.0,4.0,3.0,11.0,8.0,3.0,62.0,5.0,4.0,199.0,27.0,3.0,238.0,586.0,685.0,4.0,,7.0,8.0,28.0,359.0,2.0,2.0,11.0,,1.0,2.0,7.0,34.0,,2.0,2.0,10.0,13.0,2.0,355.0,8.0,5.0,18.0,18.0,6.0,4.0,5.0,233.0,14.0,14.0,6.0,16.0,3.0,2.0,29.0,4.0,2.0,9.0,9.0,9.0,13.0,2.0,12.0,29.0,20.0,24.0,,6.0,3.0,,1.0,,3.0,4.0,130.0,2.0,159.0,22.0,10.0,14.0,,2.0,94.0,1.0,443.0,25.0,7.0,,7.0,2.0,90.0,2.0,7.0,13.0,,17.0,5.0,22.0,59.0,257.0,2.0,3.0,11.0,31.0,6.0,8.0,2.0,401.0,4.0,556.0,15.0,3.0,7.0,18.0,16.0,285.0,25.0,33.0,31.0,8.0,7.0,7.0,2.0,19.0,5.0,120.0,337.0,9.0,232.0,3.0,46.0,7.0,8.0,11.0,5.0,21.0,211.0,91.0,2.0,4.0,10.0,9.0,,17.0,6.0,1.0,8.0,27.0,5.0,348.0,118.0,,,7.0,3.0,130.0,62.0,54.0,53.0,2.0,53.0,883.0,30.0,2.0,1.0,2.0,2.0,1.0,69.0,148.0,,4.0,201.0,429.0,17.0,2.0,2.0,78.0,2.0,15.0,1.0,10.0,2.0,2.0,27.0,38.0,14.0,5.0,2.0,7.0,102.0,3.0,53.0,2.0,35.0,8.0,24.0,3.0,7.0,84.0,3.0,199.0,91.0,19.0,17.0,14.0,7.0,3.0,2.0,29.0,330.0,461.0,19.0,5.0,19.0,3.0,118.0,5.0,71.0,291.0,108.0,2.0,126.0,5.0,,3.0,10.0,146.0,,11.0,2.0,2.0,2.0,2.0,23.0,,10.0,3.0,193.0,7.0,9.0,43.0,44.0,6.0,2.0,3.0,8.0,18.0,1.0,3.0,13.0,2.0,,29.0,2.0,6.0
2015-12-05,3.0,5.0,36.0,2.0,2.0,,4.0,4.0,10.0,,1.0,6.0,6.0,,18.0,1.0,7.0,38.0,1.0,5.0,757.0,6.0,103.0,4.0,3.0,4.0,42.0,2.0,,5.0,2.0,,23.0,4.0,6.0,2.0,2.0,5.0,106.0,31.0,219.0,2.0,2.0,3.0,1.0,5.0,3.0,2.0,15.0,7.0,44.0,44.0,208.0,6.0,8.0,13.0,1.0,2.0,8.0,5.0,30.0,14.0,2.0,,70.0,6.0,246.0,52.0,5.0,2.0,1.0,15.0,4.0,3.0,8.0,5.0,2.0,32.0,4.0,3.0,148.0,14.0,2.0,154.0,438.0,520.0,3.0,,6.0,5.0,17.0,248.0,1.0,2.0,10.0,,1.0,1.0,5.0,26.0,,1.0,1.0,7.0,9.0,1.0,204.0,8.0,5.0,11.0,15.0,4.0,4.0,3.0,232.0,10.0,9.0,5.0,10.0,2.0,2.0,23.0,3.0,1.0,6.0,6.0,8.0,8.0,1.0,9.0,21.0,12.0,13.0,,4.0,2.0,,1.0,,2.0,4.0,123.0,1.0,116.0,18.0,9.0,9.0,,1.0,70.0,1.0,312.0,18.0,4.0,,5.0,2.0,60.0,1.0,5.0,12.0,,15.0,5.0,12.0,39.0,236.0,2.0,1.0,10.0,32.0,6.0,6.0,1.0,362.0,4.0,439.0,12.0,3.0,4.0,10.0,11.0,154.0,22.0,32.0,18.0,6.0,5.0,4.0,1.0,12.0,3.0,87.0,345.0,7.0,200.0,2.0,30.0,5.0,7.0,6.0,4.0,19.0,206.0,65.0,2.0,3.0,6.0,5.0,,9.0,4.0,,5.0,17.0,3.0,230.0,94.0,2.0,,7.0,2.0,108.0,66.0,37.0,33.0,2.0,43.0,591.0,22.0,2.0,,2.0,2.0,1.0,56.0,117.0,,2.0,159.0,338.0,12.0,1.0,1.0,53.0,2.0,11.0,,8.0,2.0,2.0,25.0,30.0,11.0,3.0,2.0,5.0,73.0,2.0,29.0,1.0,28.0,4.0,17.0,2.0,5.0,89.0,2.0,164.0,70.0,15.0,10.0,9.0,8.0,3.0,1.0,17.0,279.0,339.0,14.0,4.0,12.0,3.0,78.0,5.0,78.0,212.0,81.0,2.0,89.0,4.0,,3.0,9.0,105.0,,16.0,2.0,2.0,1.0,2.0,15.0,,6.0,1.0,167.0,3.0,9.0,28.0,37.0,6.0,2.0,2.0,4.0,13.0,1.0,2.0,9.0,2.0,,17.0,2.0,4.0
2015-12-06,6.0,6.0,51.0,2.0,3.0,,5.0,4.0,10.0,1.0,1.0,10.0,7.0,,25.0,2.0,7.0,37.0,1.0,5.0,1013.0,8.0,125.0,7.0,3.0,6.0,51.0,2.0,,7.0,2.0,,35.0,8.0,11.0,2.0,4.0,9.0,141.0,38.0,281.0,3.0,3.0,3.0,1.0,7.0,2.0,2.0,20.0,10.0,47.0,53.0,250.0,7.0,15.0,15.0,1.0,2.0,13.0,6.0,36.0,17.0,2.0,,92.0,7.0,291.0,69.0,7.0,2.0,1.0,19.0,4.0,3.0,9.0,7.0,3.0,50.0,5.0,4.0,181.0,20.0,3.0,219.0,564.0,643.0,4.0,,6.0,8.0,25.0,336.0,1.0,2.0,10.0,,1.0,1.0,7.0,34.0,,2.0,1.0,10.0,11.0,2.0,290.0,8.0,5.0,16.0,18.0,6.0,4.0,5.0,228.0,12.0,13.0,6.0,16.0,3.0,2.0,27.0,3.0,2.0,9.0,9.0,9.0,12.0,2.0,10.0,29.0,15.0,19.0,,4.0,3.0,1.0,1.0,,2.0,3.0,122.0,2.0,154.0,19.0,8.0,12.0,,1.0,91.0,1.0,402.0,25.0,7.0,,8.0,1.0,81.0,1.0,6.0,12.0,,14.0,5.0,20.0,54.0,256.0,2.0,2.0,11.0,30.0,6.0,9.0,1.0,397.0,4.0,527.0,15.0,3.0,6.0,15.0,15.0,233.0,25.0,30.0,31.0,8.0,6.0,7.0,2.0,19.0,5.0,109.0,333.0,8.0,219.0,2.0,40.0,5.0,8.0,10.0,5.0,18.0,214.0,83.0,2.0,4.0,8.0,8.0,,15.0,5.0,1.0,8.0,23.0,6.0,328.0,116.0,1.0,,7.0,3.0,125.0,62.0,46.0,47.0,2.0,49.0,798.0,28.0,2.0,1.0,2.0,2.0,1.0,67.0,142.0,,4.0,184.0,413.0,14.0,1.0,2.0,65.0,2.0,14.0,,10.0,2.0,2.0,28.0,34.0,11.0,6.0,2.0,7.0,95.0,3.0,45.0,2.0,33.0,7.0,24.0,3.0,7.0,87.0,3.0,196.0,84.0,18.0,17.0,13.0,7.0,2.0,2.0,27.0,320.0,431.0,18.0,5.0,18.0,3.0,104.0,4.0,79.0,284.0,102.0,2.0,110.0,5.0,,3.0,10.0,127.0,,12.0,3.0,2.0,2.0,2.0,22.0,,10.0,3.0,187.0,6.0,9.0,37.0,43.0,5.0,2.0,3.0,7.0,18.0,,3.0,13.0,2.0,,20.0,2.0,6.0
2015-12-07,7.0,7.0,54.0,2.0,3.0,,5.0,4.0,10.0,,1.0,10.0,8.0,,26.0,2.0,8.0,41.0,2.0,5.0,1072.0,9.0,133.0,7.0,5.0,7.0,57.0,3.0,,8.0,3.0,,37.0,7.0,10.0,2.0,2.0,9.0,148.0,38.0,335.0,3.0,3.0,4.0,2.0,6.0,3.0,2.0,22.0,13.0,55.0,60.0,266.0,8.0,17.0,18.0,2.0,2.0,15.0,7.0,37.0,20.0,2.0,,103.0,8.0,286.0,75.0,7.0,2.0,1.0,22.0,4.0,3.0,12.0,8.0,3.0,62.0,5.0,4.0,202.0,27.0,3.0,237.0,587.0,683.0,4.0,,7.0,7.0,28.0,358.0,2.0,2.0,11.0,,1.0,2.0,7.0,34.0,,2.0,2.0,10.0,14.0,2.0,352.0,8.0,5.0,18.0,18.0,6.0,4.0,5.0,232.0,14.0,14.0,6.0,16.0,3.0,2.0,30.0,4.0,2.0,9.0,9.0,9.0,13.0,2.0,12.0,29.0,20.0,24.0,,6.0,3.0,,1.0,,3.0,4.0,121.0,2.0,163.0,22.0,10.0,14.0,,2.0,94.0,1.0,431.0,24.0,7.0,,7.0,2.0,87.0,2.0,7.0,13.0,,17.0,5.0,22.0,58.0,262.0,2.0,3.0,11.0,29.0,6.0,8.0,2.0,393.0,4.0,555.0,15.0,3.0,7.0,19.0,15.0,285.0,25.0,29.0,30.0,8.0,7.0,7.0,2.0,20.0,5.0,118.0,333.0,9.0,237.0,3.0,44.0,7.0,8.0,11.0,5.0,21.0,208.0,91.0,2.0,4.0,10.0,9.0,,17.0,6.0,1.0,8.0,27.0,5.0,347.0,118.0,,,7.0,3.0,131.0,60.0,53.0,52.0,2.0,52.0,888.0,29.0,2.0,1.0,2.0,2.0,1.0,67.0,147.0,,4.0,199.0,390.0,17.0,2.0,2.0,73.0,2.0,15.0,1.0,10.0,2.0,2.0,26.0,36.0,14.0,5.0,2.0,7.0,97.0,3.0,51.0,2.0,33.0,8.0,23.0,3.0,8.0,84.0,3.0,203.0,89.0,20.0,16.0,14.0,7.0,3.0,2.0,29.0,331.0,455.0,19.0,5.0,19.0,3.0,116.0,5.0,72.0,288.0,108.0,2.0,126.0,5.0,,3.0,10.0,147.0,,10.0,3.0,2.0,2.0,2.0,22.0,,10.0,3.0,193.0,7.0,9.0,41.0,42.0,5.0,2.0,3.0,8.0,18.0,1.0,3.0,13.0,2.0,,29.0,2.0,5.0
2015-12-08,6.0,7.0,53.0,2.0,3.0,,5.0,4.0,8.0,,1.0,9.0,8.0,,26.0,2.0,8.0,38.0,2.0,5.0,1061.0,8.0,128.0,7.0,5.0,8.0,57.0,3.0,,8.0,3.0,1.0,36.0,7.0,11.0,2.0,3.0,9.0,149.0,38.0,323.0,3.0,3.0,3.0,2.0,6.0,3.0,2.0,22.0,13.0,53.0,61.0,264.0,7.0,16.0,18.0,2.0,2.0,15.0,7.0,35.0,20.0,2.0,,98.0,7.0,280.0,73.0,7.0,2.0,1.0,18.0,4.0,3.0,11.0,8.0,3.0,58.0,5.0,4.0,201.0,26.0,3.0,233.0,564.0,662.0,4.0,,7.0,6.0,25.0,356.0,1.0,2.0,11.0,,1.0,2.0,7.0,34.0,,2.0,2.0,10.0,14.0,2.0,338.0,8.0,5.0,17.0,17.0,6.0,4.0,4.0,220.0,14.0,14.0,6.0,15.0,3.0,2.0,29.0,4.0,2.0,9.0,9.0,8.0,13.0,2.0,11.0,31.0,17.0,25.0,,5.0,3.0,,1.0,,3.0,4.0,115.0,1.0,164.0,21.0,9.0,13.0,,2.0,91.0,1.0,384.0,25.0,7.0,,7.0,2.0,84.0,2.0,7.0,13.0,,16.0,5.0,21.0,57.0,248.0,2.0,2.0,11.0,27.0,6.0,8.0,2.0,385.0,4.0,540.0,14.0,2.0,6.0,18.0,14.0,283.0,22.0,29.0,30.0,8.0,7.0,7.0,2.0,19.0,5.0,118.0,321.0,9.0,232.0,3.0,43.0,7.0,8.0,11.0,5.0,20.0,201.0,93.0,2.0,4.0,9.0,9.0,,16.0,6.0,1.0,8.0,26.0,5.0,334.0,111.0,,,7.0,3.0,132.0,58.0,50.0,50.0,2.0,51.0,856.0,28.0,2.0,,2.0,2.0,1.0,66.0,139.0,,4.0,197.0,387.0,17.0,2.0,2.0,73.0,2.0,15.0,,10.0,2.0,2.0,24.0,37.0,13.0,4.0,2.0,7.0,96.0,3.0,47.0,2.0,35.0,8.0,23.0,2.0,7.0,80.0,3.0,193.0,86.0,19.0,16.0,14.0,7.0,3.0,2.0,28.0,317.0,443.0,19.0,5.0,18.0,3.0,114.0,5.0,68.0,274.0,105.0,2.0,120.0,5.0,,3.0,10.0,147.0,,9.0,2.0,2.0,2.0,2.0,22.0,,10.0,3.0,187.0,7.0,9.0,39.0,39.0,6.0,2.0,3.0,8.0,19.0,,3.0,13.0,2.0,,29.0,2.0,5.0
2015-12-09,6.0,7.0,53.0,2.0,3.0,,5.0,4.0,8.0,,1.0,9.0,8.0,,27.0,2.0,8.0,37.0,2.0,5.0,1062.0,8.0,129.0,7.0,5.0,10.0,56.0,3.0,,9.0,3.0,1.0,36.0,7.0,10.0,2.0,4.0,9.0,150.0,39.0,326.0,3.0,3.0,4.0,2.0,6.0,2.0,2.0,22.0,13.0,54.0,61.0,266.0,8.0,16.0,18.0,2.0,2.0,15.0,7.0,37.0,19.0,2.0,,97.0,7.0,324.0,73.0,7.0,2.0,1.0,19.0,4.0,3.0,11.0,8.0,3.0,58.0,5.0,4.0,201.0,27.0,3.0,234.0,570.0,672.0,4.0,,7.0,7.0,28.0,355.0,2.0,2.0,11.0,,1.0,2.0,7.0,33.0,,2.0,2.0,10.0,14.0,2.0,349.0,8.0,5.0,17.0,17.0,6.0,4.0,5.0,225.0,14.0,14.0,6.0,16.0,3.0,2.0,29.0,4.0,2.0,9.0,9.0,8.0,13.0,2.0,11.0,29.0,20.0,24.0,,6.0,3.0,,1.0,,3.0,4.0,120.0,1.0,164.0,21.0,9.0,13.0,,2.0,94.0,1.0,392.0,23.0,7.0,,7.0,2.0,86.0,2.0,7.0,13.0,,15.0,5.0,20.0,58.0,250.0,2.0,3.0,11.0,29.0,6.0,7.0,2.0,390.0,4.0,549.0,14.0,2.0,7.0,18.0,14.0,286.0,22.0,28.0,30.0,8.0,7.0,7.0,2.0,19.0,5.0,119.0,322.0,10.0,232.0,3.0,44.0,8.0,8.0,11.0,5.0,20.0,207.0,93.0,2.0,4.0,8.0,9.0,,16.0,7.0,1.0,8.0,27.0,4.0,345.0,115.0,1.0,,7.0,3.0,131.0,59.0,51.0,52.0,2.0,52.0,864.0,31.0,2.0,,2.0,2.0,1.0,69.0,145.0,,4.0,199.0,427.0,17.0,2.0,2.0,72.0,2.0,15.0,,10.0,2.0,2.0,25.0,38.0,14.0,5.0,2.0,7.0,100.0,3.0,50.0,2.0,35.0,8.0,22.0,3.0,7.0,79.0,3.0,196.0,85.0,19.0,17.0,14.0,7.0,2.0,2.0,29.0,325.0,449.0,19.0,5.0,19.0,3.0,115.0,5.0,69.0,280.0,107.0,2.0,121.0,4.0,,3.0,10.0,147.0,,10.0,2.0,2.0,2.0,2.0,23.0,,10.0,3.0,191.0,7.0,9.0,41.0,40.0,6.0,2.0,3.0,8.0,18.0,1.0,3.0,13.0,2.0,,29.0,2.0,6.0
2015-12-10,7.0,7.0,53.0,2.0,3.0,,5.0,4.0,10.0,1.0,1.0,10.0,8.0,,29.0,2.0,8.0,41.0,2.0,5.0,1074.0,8.0,133.0,7.0,5.0,11.0,58.0,3.0,,9.0,3.0,1.0,37.0,7.0,11.0,2.0,2.0,9.0,149.0,39.0,334.0,3.0,3.0,3.0,2.0,7.0,2.0,2.0,22.0,13.0,57.0,61.0,269.0,7.0,17.0,18.0,2.0,2.0,15.0,7.0,36.0,21.0,2.0,,104.0,8.0,326.0,76.0,7.0,2.0,1.0,22.0,4.0,3.0,12.0,8.0,3.0,64.0,5.0,4.0,202.0,27.0,3.0,239.0,590.0,686.0,4.0,,7.0,8.0,28.0,362.0,2.0,2.0,11.0,,1.0,2.0,7.0,34.0,,2.0,2.0,10.0,14.0,2.0,358.0,8.0,5.0,18.0,18.0,6.0,4.0,5.0,232.0,14.0,14.0,6.0,16.0,3.0,2.0,29.0,4.0,2.0,9.0,9.0,9.0,13.0,2.0,12.0,29.0,19.0,23.0,,6.0,3.0,,1.0,,3.0,4.0,121.0,2.0,164.0,22.0,10.0,14.0,,2.0,94.0,1.0,441.0,25.0,7.0,,7.0,2.0,88.0,2.0,7.0,13.0,,17.0,5.0,22.0,59.0,265.0,2.0,3.0,11.0,29.0,6.0,8.0,2.0,401.0,4.0,562.0,15.0,3.0,7.0,19.0,16.0,289.0,25.0,28.0,31.0,8.0,7.0,7.0,2.0,20.0,5.0,120.0,334.0,9.0,232.0,3.0,45.0,7.0,8.0,11.0,5.0,20.0,213.0,94.0,2.0,4.0,10.0,9.0,,17.0,6.0,1.0,8.0,26.0,6.0,350.0,118.0,,,7.0,3.0,132.0,59.0,53.0,52.0,2.0,53.0,891.0,30.0,2.0,1.0,2.0,2.0,1.0,69.0,148.0,,4.0,200.0,431.0,17.0,2.0,2.0,78.0,2.0,15.0,,10.0,2.0,2.0,27.0,38.0,14.0,5.0,2.0,7.0,102.0,3.0,53.0,2.0,35.0,8.0,24.0,3.0,7.0,87.0,3.0,205.0,90.0,19.0,17.0,14.0,7.0,2.0,2.0,29.0,327.0,465.0,19.0,5.0,19.0,3.0,118.0,5.0,72.0,292.0,110.0,2.0,127.0,5.0,,3.0,10.0,147.0,,10.0,2.0,2.0,2.0,2.0,23.0,,10.0,3.0,196.0,7.0,9.0,42.0,43.0,6.0,2.0,3.0,8.0,19.0,,3.0,13.0,2.0,,29.0,2.0,6.0
2015-12-11,7.0,7.0,53.0,2.0,3.0,,5.0,4.0,10.0,,1.0,10.0,8.0,,29.0,2.0,8.0,40.0,2.0,5.0,1076.0,8.0,135.0,7.0,5.0,11.0,57.0,3.0,,9.0,3.0,1.0,37.0,7.0,10.0,2.0,4.0,9.0,149.0,39.0,337.0,3.0,3.0,4.0,2.0,7.0,3.0,2.0,22.0,13.0,55.0,61.0,267.0,8.0,17.0,17.0,2.0,2.0,15.0,7.0,37.0,20.0,2.0,,103.0,8.0,327.0,76.0,7.0,2.0,1.0,22.0,4.0,3.0,10.0,8.0,3.0,65.0,5.0,4.0,202.0,27.0,3.0,237.0,589.0,684.0,4.0,,7.0,8.0,27.0,361.0,2.0,2.0,11.0,,1.0,2.0,7.0,34.0,,2.0,2.0,11.0,13.0,2.0,356.0,8.0,5.0,18.0,18.0,6.0,4.0,5.0,236.0,14.0,14.0,6.0,16.0,3.0,2.0,29.0,4.0,2.0,9.0,9.0,9.0,13.0,2.0,12.0,29.0,20.0,23.0,,6.0,3.0,,1.0,,3.0,4.0,131.0,2.0,163.0,22.0,10.0,14.0,,2.0,94.0,1.0,437.0,25.0,7.0,,7.0,2.0,88.0,2.0,7.0,13.0,,17.0,5.0,22.0,59.0,259.0,2.0,3.0,11.0,31.0,6.0,8.0,2.0,401.0,4.0,558.0,15.0,3.0,7.0,19.0,16.0,285.0,25.0,33.0,31.0,8.0,7.0,7.0,2.0,20.0,5.0,121.0,341.0,9.0,230.0,3.0,46.0,7.0,8.0,11.0,5.0,20.0,211.0,92.0,2.0,4.0,10.0,9.0,,17.0,6.0,1.0,8.0,27.0,5.0,350.0,119.0,,,7.0,3.0,133.0,62.0,53.0,53.0,2.0,52.0,886.0,30.0,2.0,1.0,2.0,2.0,1.0,68.0,150.0,,4.0,200.0,433.0,17.0,2.0,2.0,75.0,2.0,15.0,1.0,10.0,2.0,2.0,27.0,38.0,14.0,5.0,2.0,7.0,102.0,3.0,53.0,2.0,35.0,8.0,24.0,3.0,7.0,84.0,3.0,205.0,92.0,19.0,17.0,14.0,7.0,3.0,2.0,29.0,333.0,466.0,19.0,5.0,19.0,3.0,118.0,5.0,72.0,291.0,111.0,2.0,127.0,5.0,,3.0,10.0,146.0,,11.0,2.0,2.0,2.0,2.0,23.0,,10.0,3.0,193.0,7.0,9.0,42.0,43.0,6.0,2.0,3.0,8.0,18.0,1.0,3.0,13.0,2.0,,29.0,2.0,6.0
2015-12-12,3.0,5.0,36.0,2.0,2.0,,4.0,4.0,10.0,,1.0,6.0,6.0,,20.0,1.0,7.0,38.0,1.0,5.0,763.0,6.0,103.0,4.0,3.0,7.0,42.0,2.0,,5.0,2.0,,23.0,4.0,6.0,2.0,2.0,5.0,106.0,32.0,219.0,2.0,2.0,3.0,1.0,5.0,3.0,2.0,15.0,7.0,42.0,44.0,211.0,6.0,8.0,14.0,1.0,2.0,8.0,5.0,31.0,14.0,2.0,,70.0,6.0,246.0,50.0,5.0,2.0,1.0,16.0,4.0,3.0,8.0,5.0,2.0,32.0,4.0,3.0,148.0,15.0,2.0,155.0,441.0,519.0,3.0,,6.0,5.0,16.0,251.0,1.0,2.0,10.0,,1.0,1.0,5.0,27.0,,1.0,1.0,7.0,9.0,1.0,207.0,7.0,5.0,11.0,15.0,4.0,4.0,3.0,233.0,10.0,9.0,5.0,10.0,2.0,2.0,24.0,3.0,1.0,6.0,6.0,8.0,8.0,1.0,9.0,21.0,12.0,13.0,,4.0,2.0,,1.0,1.0,2.0,4.0,123.0,1.0,116.0,18.0,9.0,9.0,,1.0,70.0,1.0,317.0,17.0,4.0,,5.0,2.0,57.0,1.0,5.0,12.0,,15.0,5.0,12.0,41.0,237.0,2.0,1.0,10.0,32.0,6.0,6.0,1.0,361.0,4.0,440.0,13.0,3.0,4.0,11.0,11.0,154.0,22.0,31.0,18.0,8.0,5.0,4.0,1.0,12.0,3.0,86.0,347.0,7.0,200.0,2.0,30.0,5.0,7.0,6.0,4.0,19.0,205.0,63.0,2.0,3.0,6.0,5.0,,9.0,4.0,,5.0,17.0,3.0,230.0,94.0,2.0,,7.0,2.0,106.0,66.0,37.0,33.0,2.0,43.0,592.0,22.0,2.0,,2.0,2.0,1.0,56.0,118.0,,2.0,159.0,338.0,12.0,1.0,1.0,52.0,2.0,11.0,,8.0,3.0,2.0,26.0,30.0,11.0,3.0,2.0,5.0,73.0,2.0,29.0,1.0,28.0,4.0,17.0,2.0,5.0,89.0,2.0,163.0,70.0,15.0,11.0,9.0,8.0,3.0,1.0,18.0,280.0,342.0,14.0,4.0,13.0,3.0,79.0,5.0,80.0,212.0,82.0,2.0,89.0,4.0,,3.0,9.0,104.0,,16.0,2.0,2.0,1.0,2.0,14.0,,6.0,1.0,166.0,3.0,9.0,28.0,37.0,6.0,2.0,2.0,4.0,13.0,1.0,2.0,9.0,2.0,,17.0,2.0,4.0
2015-12-13,6.0,6.0,51.0,2.0,3.0,,5.0,4.0,10.0,1.0,1.0,9.0,7.0,,26.0,2.0,7.0,37.0,1.0,5.0,1013.0,8.0,125.0,7.0,3.0,9.0,51.0,2.0,,8.0,2.0,,35.0,8.0,11.0,2.0,4.0,9.0,140.0,38.0,281.0,3.0,3.0,4.0,1.0,7.0,2.0,2.0,19.0,10.0,48.0,53.0,250.0,7.0,14.0,15.0,1.0,2.0,13.0,6.0,36.0,17.0,2.0,,92.0,7.0,290.0,69.0,7.0,2.0,1.0,19.0,4.0,3.0,9.0,7.0,3.0,50.0,4.0,4.0,181.0,21.0,3.0,219.0,562.0,645.0,4.0,,6.0,8.0,28.0,336.0,1.0,2.0,10.0,,1.0,1.0,7.0,33.0,,2.0,1.0,10.0,11.0,2.0,288.0,8.0,5.0,16.0,18.0,6.0,4.0,5.0,228.0,12.0,11.0,6.0,16.0,3.0,2.0,27.0,3.0,2.0,9.0,9.0,9.0,12.0,2.0,10.0,29.0,15.0,17.0,,4.0,3.0,1.0,1.0,1.0,2.0,3.0,124.0,2.0,153.0,19.0,8.0,12.0,,1.0,90.0,1.0,401.0,26.0,7.0,,8.0,1.0,80.0,1.0,6.0,12.0,,14.0,5.0,20.0,54.0,258.0,2.0,2.0,11.0,30.0,6.0,9.0,1.0,397.0,4.0,530.0,15.0,3.0,6.0,15.0,15.0,233.0,25.0,31.0,31.0,7.0,6.0,7.0,2.0,19.0,5.0,107.0,336.0,8.0,219.0,2.0,41.0,6.0,8.0,10.0,5.0,18.0,214.0,83.0,2.0,4.0,8.0,8.0,,15.0,5.0,1.0,8.0,24.0,6.0,325.0,115.0,,,7.0,3.0,125.0,62.0,47.0,47.0,2.0,49.0,798.0,28.0,2.0,1.0,2.0,2.0,1.0,67.0,142.0,,4.0,186.0,415.0,14.0,1.0,2.0,64.0,2.0,14.0,,10.0,3.0,2.0,28.0,35.0,12.0,6.0,2.0,7.0,95.0,3.0,45.0,2.0,33.0,7.0,23.0,3.0,7.0,87.0,3.0,196.0,83.0,19.0,17.0,13.0,7.0,2.0,2.0,28.0,323.0,430.0,17.0,5.0,18.0,3.0,104.0,4.0,80.0,284.0,102.0,2.0,110.0,5.0,,3.0,10.0,130.0,,12.0,3.0,2.0,2.0,2.0,22.0,,10.0,3.0,186.0,6.0,9.0,38.0,43.0,6.0,2.0,3.0,7.0,18.0,,3.0,13.0,2.0,,20.0,2.0,6.0
2015-12-14,7.0,7.0,53.0,2.0,3.0,,5.0,4.0,10.0,,1.0,10.0,8.0,,28.0,2.0,8.0,41.0,2.0,5.0,1069.0,8.0,134.0,7.0,5.0,10.0,58.0,3.0,,8.0,3.0,,37.0,7.0,10.0,2.0,2.0,9.0,148.0,39.0,335.0,3.0,3.0,5.0,2.0,6.0,3.0,2.0,21.0,13.0,56.0,60.0,267.0,8.0,17.0,18.0,2.0,2.0,15.0,7.0,37.0,20.0,2.0,,104.0,8.0,284.0,75.0,7.0,2.0,1.0,22.0,4.0,3.0,11.0,8.0,3.0,65.0,5.0,4.0,202.0,27.0,3.0,239.0,586.0,683.0,4.0,,7.0,7.0,28.0,353.0,2.0,2.0,11.0,,1.0,2.0,7.0,34.0,,2.0,2.0,10.0,14.0,2.0,350.0,8.0,5.0,18.0,18.0,6.0,4.0,5.0,233.0,14.0,14.0,6.0,16.0,4.0,2.0,30.0,4.0,2.0,9.0,9.0,9.0,14.0,2.0,11.0,29.0,20.0,23.0,,6.0,3.0,,1.0,,3.0,4.0,123.0,2.0,164.0,20.0,10.0,14.0,,2.0,95.0,1.0,431.0,25.0,7.0,,7.0,2.0,87.0,2.0,7.0,13.0,,17.0,5.0,22.0,57.0,265.0,2.0,3.0,11.0,29.0,6.0,8.0,2.0,392.0,4.0,557.0,15.0,3.0,7.0,19.0,16.0,284.0,25.0,29.0,31.0,8.0,7.0,7.0,2.0,21.0,5.0,120.0,334.0,9.0,236.0,3.0,44.0,7.0,8.0,11.0,5.0,21.0,208.0,92.0,2.0,4.0,10.0,9.0,,17.0,6.0,1.0,8.0,27.0,5.0,345.0,118.0,,,7.0,3.0,130.0,60.0,53.0,53.0,2.0,52.0,892.0,29.0,1.0,1.0,2.0,2.0,1.0,68.0,147.0,,4.0,198.0,392.0,17.0,2.0,2.0,72.0,2.0,15.0,1.0,10.0,3.0,2.0,26.0,37.0,14.0,5.0,2.0,7.0,98.0,3.0,51.0,2.0,34.0,8.0,23.0,3.0,7.0,83.0,3.0,203.0,88.0,19.0,16.0,14.0,7.0,3.0,2.0,29.0,329.0,456.0,19.0,5.0,19.0,3.0,117.0,5.0,74.0,289.0,107.0,2.0,124.0,5.0,,3.0,10.0,144.0,,10.0,3.0,2.0,2.0,3.0,22.0,,10.0,3.0,194.0,7.0,9.0,41.0,42.0,5.0,2.0,3.0,8.0,18.0,1.0,3.0,13.0,2.0,,29.0,2.0,5.0
2015-12-15,6.0,7.0,55.0,2.0,3.0,,5.0,4.0,8.0,,1.0,9.0,8.0,,28.0,2.0,8.0,38.0,2.0,5.0,1067.0,8.0,130.0,7.0,5.0,10.0,56.0,3.0,,8.0,3.0,1.0,36.0,7.0,11.0,2.0,3.0,10.0,150.0,38.0,327.0,3.0,3.0,4.0,2.0,6.0,3.0,2.0,22.0,13.0,53.0,61.0,268.0,7.0,16.0,18.0,2.0,2.0,15.0,7.0,35.0,20.0,2.0,,98.0,7.0,281.0,73.0,7.0,2.0,1.0,19.0,4.0,3.0,11.0,8.0,3.0,55.0,5.0,4.0,200.0,27.0,3.0,231.0,566.0,662.0,4.0,,7.0,6.0,25.0,348.0,1.0,2.0,11.0,,1.0,2.0,7.0,34.0,,2.0,2.0,10.0,14.0,2.0,340.0,8.0,5.0,17.0,17.0,6.0,4.0,4.0,223.0,14.0,14.0,6.0,15.0,3.0,2.0,29.0,4.0,2.0,9.0,9.0,8.0,13.0,2.0,11.0,31.0,17.0,23.0,,5.0,3.0,,1.0,1.0,3.0,4.0,118.0,1.0,166.0,22.0,9.0,13.0,,2.0,91.0,1.0,384.0,25.0,7.0,,7.0,2.0,85.0,2.0,6.0,13.0,,17.0,5.0,21.0,57.0,251.0,2.0,2.0,11.0,27.0,6.0,8.0,2.0,385.0,4.0,543.0,14.0,2.0,6.0,18.0,14.0,284.0,23.0,30.0,30.0,8.0,7.0,7.0,2.0,19.0,5.0,118.0,329.0,10.0,241.0,3.0,44.0,8.0,8.0,11.0,5.0,21.0,201.0,93.0,2.0,4.0,9.0,9.0,,16.0,6.0,1.0,8.0,25.0,5.0,339.0,110.0,,,7.0,3.0,138.0,59.0,50.0,49.0,2.0,51.0,852.0,29.0,2.0,,2.0,2.0,1.0,67.0,142.0,,4.0,197.0,388.0,17.0,2.0,2.0,73.0,2.0,15.0,,10.0,3.0,2.0,24.0,37.0,13.0,4.0,2.0,7.0,98.0,3.0,46.0,2.0,35.0,8.0,24.0,2.0,7.0,80.0,3.0,199.0,86.0,19.0,16.0,14.0,7.0,3.0,2.0,28.0,324.0,446.0,19.0,5.0,18.0,3.0,115.0,5.0,70.0,274.0,108.0,2.0,120.0,5.0,,3.0,10.0,149.0,,9.0,2.0,2.0,2.0,2.0,23.0,,10.0,3.0,188.0,7.0,9.0,39.0,39.0,6.0,2.0,3.0,7.0,19.0,,3.0,13.0,2.0,,29.0,2.0,5.0
2015-12-16,6.0,7.0,55.0,2.0,3.0,,5.0,5.0,8.0,,1.0,10.0,8.0,,29.0,2.0,8.0,36.0,2.0,5.0,1067.0,8.0,132.0,7.0,5.0,10.0,58.0,3.0,,9.0,3.0,1.0,36.0,7.0,10.0,2.0,4.0,9.0,149.0,39.0,333.0,3.0,3.0,5.0,2.0,6.0,2.0,2.0,21.0,13.0,53.0,61.0,271.0,8.0,15.0,18.0,2.0,2.0,15.0,7.0,37.0,20.0,2.0,,100.0,8.0,328.0,76.0,7.0,2.0,1.0,20.0,4.0,3.0,11.0,8.0,3.0,58.0,5.0,4.0,200.0,27.0,3.0,237.0,586.0,678.0,4.0,,7.0,8.0,28.0,355.0,2.0,2.0,11.0,,1.0,2.0,7.0,33.0,,2.0,2.0,10.0,14.0,2.0,352.0,8.0,5.0,18.0,17.0,6.0,4.0,5.0,230.0,14.0,13.0,6.0,16.0,3.0,2.0,29.0,4.0,2.0,9.0,9.0,9.0,12.0,2.0,10.0,29.0,20.0,23.0,,6.0,3.0,,1.0,1.0,3.0,4.0,126.0,2.0,165.0,21.0,10.0,14.0,,2.0,94.0,1.0,431.0,25.0,7.0,,7.0,2.0,88.0,2.0,7.0,13.0,,17.0,5.0,22.0,58.0,260.0,2.0,3.0,11.0,29.0,6.0,8.0,2.0,394.0,4.0,557.0,15.0,2.0,7.0,17.0,16.0,284.0,24.0,29.0,31.0,7.0,7.0,7.0,2.0,20.0,5.0,119.0,330.0,9.0,240.0,3.0,45.0,7.0,8.0,11.0,5.0,21.0,206.0,94.0,2.0,4.0,10.0,9.0,,17.0,6.0,1.0,8.0,27.0,4.0,348.0,116.0,,,7.0,3.0,136.0,59.0,50.0,53.0,2.0,52.0,879.0,30.0,2.0,,2.0,2.0,1.0,68.0,147.0,,4.0,201.0,431.0,18.0,2.0,2.0,77.0,2.0,15.0,1.0,10.0,3.0,2.0,25.0,38.0,14.0,5.0,2.0,7.0,99.0,3.0,52.0,2.0,35.0,8.0,23.0,3.0,7.0,80.0,3.0,203.0,87.0,19.0,17.0,14.0,7.0,2.0,2.0,29.0,334.0,457.0,19.0,5.0,19.0,3.0,118.0,5.0,71.0,278.0,114.0,2.0,123.0,4.0,,3.0,10.0,148.0,,10.0,2.0,2.0,2.0,2.0,23.0,,10.0,3.0,193.0,7.0,9.0,40.0,42.0,5.0,2.0,3.0,8.0,18.0,1.0,3.0,13.0,2.0,,28.0,2.0,6.0
2015-12-17,7.0,8.0,54.0,2.0,3.0,,5.0,4.0,10.0,1.0,1.0,11.0,8.0,,26.0,2.0,10.0,46.0,2.0,23.0,1075.0,7.0,134.0,7.0,4.0,9.0,59.0,3.0,,7.0,3.0,1.0,40.0,9.0,11.0,2.0,3.0,9.0,143.0,41.0,323.0,3.0,3.0,4.0,2.0,8.0,2.0,2.0,21.0,15.0,52.0,59.0,275.0,11.0,17.0,17.0,2.0,2.0,14.0,7.0,35.0,19.0,2.0,,100.0,6.0,322.0,75.0,7.0,2.0,1.0,22.0,4.0,3.0,11.0,8.0,3.0,61.0,4.0,4.0,201.0,24.0,3.0,224.0,633.0,743.0,4.0,,7.0,6.0,31.0,357.0,2.0,2.0,11.0,,8.0,2.0,7.0,36.0,,2.0,2.0,10.0,14.0,2.0,342.0,4.0,6.0,19.0,18.0,6.0,5.0,6.0,242.0,14.0,16.0,6.0,16.0,3.0,2.0,30.0,4.0,2.0,11.0,9.0,9.0,12.0,2.0,12.0,31.0,16.0,22.0,,7.0,3.0,2.0,1.0,4.0,3.0,4.0,132.0,2.0,166.0,19.0,10.0,15.0,,2.0,97.0,1.0,427.0,23.0,7.0,,6.0,2.0,87.0,2.0,7.0,13.0,,17.0,14.0,21.0,59.0,273.0,2.0,3.0,11.0,34.0,6.0,8.0,2.0,405.0,4.0,600.0,14.0,3.0,6.0,17.0,12.0,275.0,26.0,34.0,30.0,8.0,6.0,6.0,2.0,19.0,5.0,120.0,345.0,11.0,240.0,3.0,45.0,5.0,7.0,11.0,5.0,18.0,223.0,91.0,2.0,4.0,10.0,8.0,1.0,16.0,7.0,1.0,7.0,27.0,7.0,346.0,117.0,8.0,,7.0,3.0,137.0,68.0,51.0,52.0,2.0,54.0,875.0,32.0,2.0,1.0,2.0,2.0,1.0,79.0,157.0,,4.0,212.0,465.0,17.0,2.0,2.0,73.0,2.0,18.0,,11.0,3.0,2.0,28.0,38.0,14.0,8.0,2.0,7.0,104.0,3.0,50.0,2.0,37.0,7.0,26.0,3.0,6.0,97.0,3.0,218.0,87.0,20.0,15.0,14.0,7.0,2.0,2.0,29.0,355.0,481.0,19.0,6.0,19.0,3.0,116.0,5.0,84.0,296.0,111.0,2.0,128.0,5.0,,3.0,12.0,152.0,,14.0,2.0,4.0,2.0,2.0,21.0,,9.0,3.0,200.0,7.0,9.0,38.0,46.0,9.0,2.0,3.0,5.0,20.0,,3.0,16.0,2.0,,29.0,2.0,6.0
2015-12-18,7.0,8.0,55.0,2.0,3.0,,5.0,4.0,10.0,,1.0,11.0,8.0,,28.0,2.0,9.0,46.0,2.0,24.0,1063.0,6.0,132.0,7.0,5.0,7.0,61.0,3.0,,8.0,3.0,1.0,40.0,7.0,8.0,2.0,4.0,9.0,147.0,42.0,314.0,3.0,3.0,5.0,2.0,7.0,3.0,2.0,21.0,15.0,53.0,60.0,272.0,13.0,16.0,17.0,2.0,2.0,15.0,7.0,35.0,19.0,2.0,,98.0,5.0,320.0,71.0,7.0,2.0,1.0,23.0,4.0,4.0,12.0,8.0,3.0,63.0,4.0,4.0,202.0,27.0,3.0,222.0,647.0,751.0,4.0,,7.0,7.0,30.0,352.0,2.0,2.0,11.0,,10.0,2.0,7.0,37.0,,2.0,2.0,10.0,13.0,2.0,348.0,4.0,6.0,21.0,20.0,6.0,5.0,6.0,254.0,14.0,13.0,6.0,16.0,3.0,2.0,30.0,4.0,2.0,11.0,9.0,9.0,12.0,2.0,11.0,30.0,18.0,24.0,,6.0,3.0,3.0,1.0,6.0,3.0,4.0,140.0,2.0,166.0,21.0,9.0,15.0,,2.0,98.0,1.0,437.0,27.0,8.0,,6.0,2.0,88.0,2.0,6.0,13.0,,17.0,16.0,21.0,58.0,271.0,2.0,3.0,11.0,35.0,6.0,9.0,2.0,410.0,4.0,597.0,16.0,3.0,6.0,19.0,13.0,274.0,26.0,38.0,31.0,8.0,6.0,6.0,2.0,19.0,5.0,122.0,363.0,8.0,240.0,3.0,44.0,8.0,8.0,11.0,5.0,16.0,220.0,89.0,2.0,4.0,12.0,9.0,1.0,17.0,6.0,1.0,7.0,30.0,5.0,336.0,119.0,6.0,,7.0,3.0,138.0,70.0,52.0,57.0,2.0,56.0,881.0,30.0,2.0,1.0,2.0,2.0,1.0,82.0,158.0,,4.0,213.0,469.0,16.0,2.0,2.0,74.0,2.0,19.0,1.0,11.0,3.0,2.0,27.0,40.0,16.0,8.0,2.0,7.0,103.0,3.0,48.0,2.0,39.0,7.0,24.0,3.0,6.0,98.0,3.0,217.0,91.0,20.0,14.0,14.0,7.0,3.0,2.0,29.0,359.0,490.0,19.0,6.0,19.0,3.0,116.0,5.0,90.0,299.0,113.0,1.0,128.0,5.0,,3.0,12.0,152.0,,17.0,3.0,4.0,2.0,2.0,21.0,,9.0,3.0,204.0,6.0,9.0,41.0,44.0,9.0,2.0,3.0,5.0,19.0,1.0,3.0,16.0,2.0,,32.0,2.0,6.0
2015-12-19,3.0,6.0,43.0,2.0,2.0,,5.0,5.0,10.0,,1.0,9.0,6.0,,23.0,1.0,8.0,45.0,1.0,28.0,963.0,9.0,114.0,7.0,4.0,4.0,48.0,2.0,,6.0,1.0,,28.0,9.0,12.0,2.0,3.0,8.0,112.0,40.0,245.0,3.0,2.0,5.0,1.0,7.0,3.0,2.0,19.0,11.0,44.0,47.0,223.0,19.0,11.0,16.0,1.0,2.0,9.0,7.0,32.0,17.0,2.0,,82.0,5.0,276.0,59.0,5.0,2.0,2.0,21.0,4.0,5.0,11.0,6.0,2.0,54.0,3.0,5.0,157.0,19.0,2.0,161.0,590.0,653.0,3.0,,5.0,7.0,21.0,287.0,1.0,2.0,11.0,,14.0,1.0,3.0,28.0,,2.0,1.0,10.0,9.0,1.0,272.0,7.0,6.0,19.0,20.0,4.0,7.0,6.0,274.0,13.0,11.0,5.0,13.0,2.0,2.0,24.0,5.0,2.0,12.0,6.0,9.0,12.0,2.0,11.0,23.0,13.0,16.0,,5.0,2.0,5.0,1.0,11.0,2.0,4.0,135.0,1.0,121.0,18.0,8.0,11.0,,1.0,86.0,1.0,389.0,24.0,6.0,,5.0,2.0,66.0,2.0,4.0,12.0,1.0,15.0,22.0,17.0,53.0,271.0,2.0,1.0,10.0,37.0,6.0,7.0,1.0,378.0,4.0,542.0,14.0,3.0,5.0,12.0,13.0,212.0,25.0,37.0,27.0,8.0,5.0,5.0,2.0,11.0,4.0,86.0,388.0,8.0,205.0,2.0,35.0,6.0,7.0,7.0,5.0,16.0,221.0,66.0,2.0,5.0,10.0,8.0,2.0,14.0,5.0,1.0,7.0,24.0,5.0,311.0,102.0,10.0,,9.0,3.0,107.0,71.0,41.0,44.0,2.0,48.0,749.0,26.0,2.0,,2.0,2.0,1.0,88.0,140.0,,3.0,180.0,432.0,13.0,1.0,1.0,55.0,2.0,17.0,,8.0,3.0,2.0,35.0,30.0,16.0,9.0,2.0,6.0,81.0,2.0,33.0,1.0,34.0,6.0,19.0,3.0,4.0,115.0,3.0,190.0,75.0,21.0,14.0,14.0,8.0,3.0,3.0,24.0,334.0,435.0,16.0,5.0,18.0,3.0,86.0,5.0,102.0,304.0,93.0,2.0,93.0,5.0,,3.0,14.0,120.0,,22.0,5.0,5.0,1.0,2.0,14.0,,7.0,2.0,197.0,5.0,9.0,32.0,48.0,7.0,2.0,3.0,5.0,15.0,1.0,2.0,15.0,2.0,,21.0,2.0,5.0
2015-12-20,3.0,7.0,54.0,2.0,2.0,,5.0,4.0,10.0,1.0,1.0,10.0,7.0,,22.0,2.0,8.0,44.0,1.0,30.0,1041.0,8.0,125.0,8.0,3.0,6.0,54.0,2.0,,7.0,1.0,1.0,33.0,11.0,12.0,2.0,4.0,8.0,137.0,41.0,282.0,3.0,3.0,5.0,1.0,7.0,2.0,2.0,18.0,11.0,44.0,53.0,254.0,14.0,11.0,15.0,1.0,2.0,10.0,6.0,36.0,18.0,2.0,,90.0,5.0,292.0,64.0,7.0,2.0,2.0,22.0,4.0,5.0,10.0,7.0,2.0,57.0,2.0,5.0,188.0,21.0,3.0,197.0,623.0,676.0,4.0,,5.0,5.0,26.0,290.0,1.0,2.0,10.0,,13.0,1.0,4.0,37.0,,2.0,1.0,11.0,10.0,2.0,312.0,6.0,6.0,20.0,21.0,4.0,6.0,6.0,270.0,12.0,11.0,6.0,15.0,3.0,2.0,30.0,4.0,2.0,12.0,8.0,8.0,12.0,2.0,11.0,30.0,11.0,19.0,,5.0,2.0,5.0,1.0,11.0,2.0,4.0,136.0,2.0,156.0,19.0,8.0,13.0,,1.0,93.0,1.0,407.0,24.0,7.0,,5.0,1.0,78.0,2.0,6.0,12.0,2.0,15.0,21.0,19.0,56.0,292.0,2.0,2.0,11.0,36.0,6.0,5.0,1.0,405.0,4.0,577.0,14.0,3.0,5.0,11.0,12.0,242.0,26.0,36.0,29.0,6.0,6.0,6.0,2.0,16.0,5.0,105.0,377.0,9.0,222.0,2.0,36.0,6.0,9.0,9.0,5.0,15.0,224.0,81.0,2.0,5.0,8.0,8.0,1.0,15.0,4.0,3.0,7.0,22.0,8.0,322.0,117.0,8.0,,9.0,4.0,125.0,69.0,49.0,55.0,2.0,49.0,838.0,27.0,2.0,1.0,2.0,2.0,1.0,91.0,153.0,,3.0,198.0,460.0,14.0,1.0,2.0,65.0,2.0,18.0,,10.0,3.0,2.0,32.0,31.0,16.0,9.0,2.0,7.0,93.0,3.0,39.0,2.0,38.0,6.0,20.0,3.0,4.0,117.0,3.0,207.0,84.0,18.0,15.0,12.0,7.0,2.0,3.0,29.0,354.0,466.0,18.0,6.0,19.0,3.0,102.0,5.0,102.0,320.0,103.0,2.0,114.0,5.0,,3.0,15.0,132.0,,20.0,3.0,5.0,2.0,2.0,18.0,,8.0,3.0,210.0,6.0,9.0,37.0,48.0,7.0,3.0,3.0,5.0,19.0,,3.0,15.0,2.0,,23.0,2.0,6.0
2015-12-21,4.0,7.0,57.0,2.0,2.0,,5.0,4.0,10.0,,1.0,10.0,7.0,,24.0,2.0,10.0,46.0,2.0,26.0,1027.0,7.0,130.0,8.0,2.0,6.0,58.0,3.0,,8.0,1.0,1.0,35.0,12.0,9.0,2.0,3.0,8.0,139.0,42.0,299.0,3.0,3.0,6.0,2.0,7.0,3.0,2.0,19.0,13.0,48.0,59.0,267.0,14.0,13.0,16.0,2.0,2.0,10.0,5.0,36.0,14.0,2.0,,94.0,5.0,312.0,66.0,7.0,2.0,1.0,22.0,4.0,3.0,12.0,7.0,2.0,52.0,4.0,5.0,202.0,22.0,3.0,214.0,634.0,692.0,4.0,,5.0,5.0,27.0,287.0,2.0,2.0,11.0,,11.0,2.0,4.0,35.0,,2.0,2.0,11.0,10.0,2.0,333.0,6.0,6.0,18.0,18.0,4.0,6.0,6.0,263.0,14.0,10.0,6.0,13.0,3.0,2.0,31.0,4.0,2.0,10.0,8.0,9.0,12.0,2.0,11.0,27.0,13.0,20.0,,6.0,2.0,2.0,1.0,7.0,3.0,4.0,137.0,2.0,165.0,19.0,9.0,12.0,,2.0,95.0,1.0,438.0,25.0,7.0,,5.0,2.0,84.0,2.0,6.0,13.0,2.0,17.0,20.0,21.0,60.0,288.0,2.0,3.0,11.0,35.0,6.0,5.0,2.0,405.0,4.0,603.0,14.0,3.0,5.0,14.0,11.0,271.0,26.0,34.0,29.0,6.0,6.0,5.0,2.0,20.0,5.0,111.0,371.0,9.0,239.0,3.0,37.0,5.0,9.0,9.0,5.0,15.0,224.0,86.0,2.0,5.0,9.0,9.0,1.0,16.0,5.0,2.0,7.0,24.0,7.0,316.0,116.0,8.0,,9.0,4.0,137.0,68.0,52.0,55.0,2.0,54.0,865.0,28.0,2.0,1.0,2.0,2.0,1.0,96.0,158.0,,3.0,205.0,474.0,14.0,2.0,2.0,68.0,2.0,18.0,1.0,10.0,3.0,2.0,32.0,36.0,14.0,10.0,2.0,7.0,96.0,3.0,44.0,2.0,40.0,6.0,23.0,3.0,4.0,113.0,3.0,216.0,86.0,17.0,14.0,13.0,7.0,3.0,3.0,28.0,367.0,485.0,18.0,6.0,19.0,3.0,113.0,5.0,94.0,318.0,113.0,2.0,125.0,5.0,,3.0,14.0,148.0,,16.0,3.0,5.0,2.0,2.0,18.0,,8.0,3.0,209.0,5.0,9.0,38.0,48.0,8.0,3.0,3.0,5.0,19.0,1.0,3.0,15.0,2.0,,27.0,2.0,6.0
2015-12-22,4.0,7.0,56.0,2.0,2.0,,5.0,4.0,10.0,,1.0,10.0,7.0,,27.0,2.0,9.0,44.0,2.0,26.0,1031.0,8.0,130.0,8.0,3.0,7.0,61.0,3.0,,7.0,1.0,1.0,34.0,12.0,11.0,2.0,4.0,8.0,139.0,42.0,300.0,3.0,3.0,5.0,2.0,7.0,3.0,2.0,19.0,14.0,48.0,59.0,269.0,13.0,12.0,16.0,2.0,2.0,10.0,5.0,33.0,17.0,2.0,,95.0,5.0,311.0,68.0,7.0,2.0,1.0,23.0,4.0,4.0,12.0,7.0,2.0,52.0,4.0,4.0,202.0,21.0,3.0,212.0,630.0,687.0,4.0,,5.0,6.0,25.0,287.0,1.0,2.0,11.0,,11.0,2.0,4.0,34.0,,2.0,2.0,11.0,10.0,2.0,337.0,6.0,6.0,18.0,18.0,4.0,6.0,6.0,264.0,14.0,10.0,6.0,13.0,3.0,2.0,31.0,4.0,2.0,11.0,8.0,9.0,12.0,2.0,12.0,28.0,11.0,19.0,,5.0,2.0,3.0,1.0,7.0,3.0,4.0,134.0,2.0,165.0,19.0,9.0,12.0,,2.0,97.0,1.0,433.0,26.0,7.0,,5.0,2.0,84.0,1.0,6.0,13.0,2.0,17.0,20.0,21.0,59.0,284.0,2.0,2.0,11.0,33.0,6.0,6.0,2.0,405.0,4.0,593.0,14.0,3.0,5.0,14.0,13.0,271.0,26.0,34.0,29.0,7.0,6.0,5.0,2.0,17.0,6.0,109.0,371.0,9.0,237.0,3.0,37.0,7.0,9.0,9.0,5.0,15.0,222.0,85.0,2.0,5.0,7.0,9.0,1.0,15.0,4.0,2.0,7.0,23.0,8.0,311.0,119.0,6.0,,9.0,4.0,138.0,67.0,52.0,53.0,2.0,54.0,869.0,28.0,2.0,,2.0,2.0,1.0,97.0,158.0,,3.0,204.0,474.0,14.0,2.0,2.0,69.0,2.0,18.0,,10.0,3.0,2.0,32.0,37.0,16.0,10.0,2.0,7.0,97.0,3.0,42.0,2.0,40.0,6.0,21.0,3.0,4.0,114.0,3.0,215.0,86.0,17.0,14.0,13.0,7.0,3.0,3.0,27.0,366.0,483.0,18.0,6.0,19.0,3.0,112.0,5.0,91.0,314.0,113.0,2.0,124.0,5.0,,3.0,14.0,148.0,,16.0,3.0,5.0,2.0,2.0,19.0,,8.0,3.0,207.0,5.0,10.0,39.0,47.0,7.0,3.0,3.0,5.0,20.0,,3.0,15.0,2.0,,26.0,2.0,6.0
2015-12-23,3.0,7.0,59.0,2.0,2.0,,5.0,4.0,10.0,,1.0,10.0,7.0,,27.0,2.0,9.0,42.0,2.0,26.0,1033.0,9.0,132.0,8.0,4.0,6.0,61.0,3.0,,7.0,1.0,1.0,38.0,12.0,10.0,2.0,4.0,8.0,141.0,43.0,309.0,3.0,3.0,6.0,2.0,7.0,2.0,2.0,20.0,14.0,47.0,64.0,291.0,13.0,12.0,16.0,2.0,2.0,10.0,6.0,38.0,18.0,2.0,,95.0,5.0,316.0,71.0,7.0,2.0,2.0,22.0,4.0,4.0,13.0,7.0,2.0,54.0,4.0,5.0,196.0,23.0,3.0,213.0,639.0,689.0,4.0,,5.0,5.0,26.0,292.0,2.0,2.0,11.0,,11.0,2.0,4.0,38.0,,2.0,2.0,11.0,10.0,2.0,336.0,6.0,6.0,19.0,17.0,4.0,6.0,6.0,272.0,13.0,9.0,6.0,15.0,3.0,2.0,31.0,4.0,2.0,10.0,8.0,9.0,12.0,2.0,11.0,27.0,12.0,21.0,,5.0,2.0,4.0,1.0,8.0,3.0,4.0,137.0,2.0,169.0,19.0,9.0,13.0,,2.0,96.0,1.0,429.0,25.0,7.0,,5.0,2.0,87.0,1.0,6.0,16.0,2.0,17.0,19.0,20.0,61.0,291.0,2.0,3.0,10.0,34.0,6.0,4.0,2.0,384.0,4.0,588.0,15.0,3.0,6.0,14.0,12.0,274.0,26.0,35.0,30.0,8.0,6.0,6.0,2.0,17.0,6.0,116.0,379.0,9.0,262.0,3.0,36.0,7.0,9.0,9.0,5.0,16.0,224.0,85.0,2.0,5.0,9.0,9.0,1.0,15.0,3.0,3.0,7.0,23.0,6.0,319.0,121.0,5.0,,9.0,4.0,141.0,67.0,50.0,60.0,2.0,54.0,866.0,34.0,2.0,1.0,2.0,2.0,1.0,98.0,159.0,,3.0,204.0,474.0,14.0,2.0,2.0,72.0,2.0,18.0,1.0,10.0,3.0,2.0,31.0,39.0,16.0,10.0,2.0,7.0,96.0,3.0,44.0,2.0,41.0,6.0,21.0,3.0,4.0,115.0,3.0,227.0,89.0,18.0,14.0,13.0,7.0,2.0,3.0,34.0,368.0,489.0,19.0,6.0,19.0,3.0,118.0,5.0,93.0,311.0,110.0,2.0,127.0,5.0,,3.0,14.0,150.0,,16.0,4.0,5.0,2.0,2.0,20.0,,8.0,3.0,221.0,5.0,9.0,40.0,52.0,7.0,3.0,3.0,5.0,18.0,1.0,3.0,15.0,2.0,,26.0,2.0,6.0
2015-12-24,2.0,7.0,48.0,2.0,1.0,,5.0,3.0,10.0,1.0,1.0,7.0,6.0,,19.0,2.0,8.0,41.0,2.0,21.0,803.0,5.0,113.0,6.0,2.0,5.0,50.0,2.0,,5.0,1.0,3.0,28.0,10.0,9.0,2.0,3.0,7.0,106.0,33.0,238.0,2.0,1.0,5.0,2.0,6.0,2.0,2.0,15.0,10.0,43.0,47.0,219.0,14.0,10.0,12.0,2.0,2.0,8.0,5.0,26.0,14.0,2.0,,72.0,5.0,267.0,52.0,7.0,2.0,1.0,18.0,4.0,2.0,10.0,4.0,1.0,36.0,3.0,4.0,165.0,18.0,3.0,159.0,486.0,615.0,3.0,,5.0,5.0,19.0,197.0,2.0,2.0,7.0,,11.0,1.0,4.0,28.0,,1.0,2.0,7.0,7.0,2.0,235.0,4.0,6.0,15.0,15.0,3.0,3.0,5.0,242.0,12.0,10.0,5.0,13.0,3.0,2.0,23.0,2.0,2.0,9.0,7.0,7.0,8.0,2.0,10.0,24.0,8.0,14.0,,4.0,2.0,2.0,1.0,6.0,3.0,3.0,132.0,2.0,126.0,16.0,6.0,8.0,,2.0,70.0,1.0,342.0,20.0,5.0,,5.0,2.0,68.0,2.0,5.0,12.0,1.0,17.0,16.0,16.0,48.0,254.0,2.0,3.0,8.0,32.0,6.0,4.0,2.0,355.0,4.0,484.0,10.0,3.0,4.0,11.0,9.0,209.0,23.0,32.0,27.0,4.0,4.0,5.0,2.0,13.0,4.0,91.0,323.0,7.0,195.0,3.0,31.0,6.0,7.0,6.0,5.0,13.0,213.0,70.0,2.0,4.0,7.0,6.0,1.0,10.0,3.0,2.0,6.0,18.0,6.0,241.0,92.0,6.0,,9.0,3.0,114.0,64.0,44.0,41.0,2.0,42.0,744.0,20.0,2.0,1.0,2.0,2.0,1.0,84.0,135.0,,3.0,164.0,417.0,11.0,2.0,2.0,57.0,2.0,14.0,,8.0,3.0,2.0,27.0,27.0,11.0,9.0,2.0,7.0,74.0,3.0,35.0,2.0,32.0,4.0,21.0,3.0,4.0,102.0,3.0,184.0,71.0,17.0,10.0,8.0,5.0,2.0,2.0,20.0,315.0,362.0,16.0,5.0,16.0,2.0,81.0,5.0,89.0,236.0,86.0,2.0,96.0,4.0,,3.0,12.0,111.0,,16.0,3.0,4.0,2.0,4.0,16.0,,6.0,3.0,178.0,4.0,8.0,32.0,44.0,6.0,2.0,3.0,5.0,15.0,,2.0,13.0,2.0,,18.0,2.0,6.0
2015-12-25,2.0,6.0,44.0,2.0,1.0,,4.0,4.0,10.0,,,6.0,3.0,,21.0,2.0,6.0,27.0,2.0,21.0,700.0,4.0,98.0,4.0,2.0,5.0,44.0,,,5.0,1.0,,25.0,7.0,6.0,2.0,4.0,6.0,100.0,33.0,225.0,3.0,1.0,6.0,2.0,5.0,1.0,1.0,14.0,6.0,36.0,37.0,221.0,12.0,8.0,10.0,1.0,,6.0,3.0,24.0,11.0,2.0,,68.0,4.0,303.0,49.0,7.0,2.0,1.0,14.0,4.0,2.0,8.0,3.0,,35.0,3.0,3.0,151.0,15.0,3.0,148.0,474.0,640.0,2.0,,4.0,5.0,19.0,191.0,2.0,2.0,6.0,,10.0,1.0,3.0,27.0,,1.0,2.0,7.0,6.0,1.0,223.0,4.0,5.0,14.0,16.0,2.0,4.0,5.0,243.0,11.0,6.0,4.0,12.0,3.0,1.0,21.0,1.0,2.0,9.0,6.0,6.0,7.0,2.0,8.0,21.0,8.0,13.0,,3.0,1.0,3.0,1.0,6.0,3.0,3.0,137.0,1.0,120.0,17.0,8.0,10.0,,1.0,73.0,1.0,324.0,18.0,4.0,,4.0,2.0,59.0,2.0,3.0,12.0,1.0,17.0,14.0,17.0,50.0,249.0,2.0,3.0,6.0,34.0,4.0,3.0,1.0,339.0,3.0,479.0,9.0,3.0,4.0,7.0,8.0,196.0,21.0,34.0,22.0,2.0,5.0,4.0,1.0,11.0,4.0,83.0,325.0,4.0,188.0,3.0,27.0,4.0,6.0,6.0,5.0,12.0,212.0,64.0,1.0,3.0,8.0,6.0,1.0,11.0,3.0,2.0,4.0,17.0,5.0,211.0,85.0,5.0,,9.0,2.0,100.0,67.0,37.0,43.0,,38.0,659.0,18.0,2.0,,,1.0,1.0,80.0,135.0,,2.0,149.0,393.0,12.0,2.0,1.0,53.0,2.0,15.0,1.0,9.0,3.0,,28.0,29.0,10.0,7.0,1.0,6.0,77.0,3.0,33.0,1.0,28.0,4.0,20.0,2.0,3.0,103.0,2.0,174.0,64.0,13.0,10.0,7.0,7.0,1.0,2.0,18.0,299.0,378.0,16.0,3.0,12.0,2.0,80.0,4.0,92.0,202.0,78.0,1.0,93.0,4.0,,2.0,12.0,103.0,,19.0,3.0,4.0,2.0,2.0,14.0,,5.0,2.0,179.0,4.0,8.0,26.0,42.0,4.0,2.0,2.0,4.0,14.0,1.0,1.0,12.0,,,14.0,,6.0
2015-12-26,3.0,6.0,57.0,2.0,2.0,,5.0,5.0,10.0,,1.0,9.0,6.0,,23.0,1.0,10.0,44.0,1.0,27.0,969.0,8.0,121.0,6.0,4.0,4.0,52.0,2.0,,6.0,1.0,,34.0,10.0,12.0,2.0,3.0,8.0,130.0,39.0,253.0,3.0,2.0,5.0,1.0,6.0,3.0,2.0,19.0,12.0,44.0,52.0,265.0,19.0,11.0,16.0,1.0,2.0,10.0,6.0,35.0,15.0,2.0,,82.0,5.0,263.0,63.0,5.0,2.0,1.0,19.0,4.0,4.0,13.0,6.0,2.0,53.0,3.0,5.0,177.0,21.0,2.0,175.0,597.0,653.0,3.0,,5.0,7.0,25.0,292.0,1.0,2.0,12.0,,15.0,1.0,4.0,33.0,,2.0,1.0,10.0,8.0,1.0,271.0,7.0,6.0,20.0,19.0,4.0,7.0,6.0,277.0,14.0,8.0,5.0,13.0,2.0,2.0,25.0,4.0,2.0,13.0,6.0,9.0,9.0,2.0,11.0,25.0,13.0,18.0,,6.0,2.0,5.0,1.0,12.0,2.0,4.0,136.0,1.0,157.0,19.0,8.0,10.0,,1.0,87.0,1.0,393.0,23.0,7.0,,5.0,2.0,70.0,2.0,5.0,16.0,2.0,15.0,22.0,16.0,56.0,268.0,2.0,1.0,10.0,37.0,6.0,5.0,1.0,385.0,4.0,566.0,14.0,3.0,5.0,11.0,12.0,228.0,26.0,37.0,28.0,6.0,5.0,5.0,2.0,14.0,4.0,107.0,388.0,8.0,247.0,2.0,36.0,5.0,7.0,7.0,5.0,15.0,219.0,73.0,2.0,5.0,7.0,8.0,2.0,14.0,4.0,2.0,7.0,24.0,6.0,306.0,109.0,11.0,,9.0,3.0,128.0,71.0,46.0,50.0,2.0,49.0,751.0,28.0,2.0,,2.0,2.0,1.0,90.0,148.0,,3.0,175.0,450.0,13.0,1.0,1.0,61.0,2.0,17.0,,8.0,3.0,2.0,35.0,31.0,14.0,10.0,2.0,6.0,85.0,3.0,35.0,1.0,39.0,6.0,20.0,3.0,4.0,123.0,3.0,207.0,87.0,20.0,14.0,13.0,8.0,3.0,3.0,29.0,343.0,441.0,18.0,5.0,19.0,3.0,99.0,5.0,103.0,308.0,104.0,2.0,99.0,5.0,,3.0,14.0,141.0,,23.0,5.0,5.0,1.0,2.0,15.0,,7.0,2.0,216.0,5.0,9.0,38.0,52.0,5.0,2.0,4.0,5.0,16.0,1.0,2.0,15.0,2.0,,21.0,2.0,5.0
2015-12-27,4.0,8.0,61.0,2.0,2.0,,5.0,4.0,10.0,1.0,1.0,11.0,7.0,,27.0,2.0,12.0,44.0,1.0,29.0,1042.0,7.0,131.0,8.0,3.0,6.0,59.0,2.0,,9.0,1.0,1.0,39.0,12.0,12.0,2.0,4.0,8.0,144.0,43.0,277.0,3.0,3.0,5.0,1.0,7.0,2.0,2.0,21.0,12.0,46.0,63.0,291.0,17.0,14.0,16.0,2.0,2.0,10.0,6.0,40.0,18.0,2.0,,96.0,5.0,299.0,73.0,7.0,2.0,2.0,23.0,4.0,5.0,11.0,7.0,2.0,62.0,2.0,5.0,196.0,22.0,3.0,190.0,660.0,735.0,4.0,,5.0,6.0,28.0,299.0,1.0,2.0,12.0,,13.0,1.0,4.0,36.0,,2.0,1.0,11.0,10.0,2.0,315.0,6.0,6.0,20.0,21.0,4.0,6.0,6.0,285.0,11.0,12.0,6.0,15.0,3.0,2.0,32.0,4.0,2.0,12.0,8.0,8.0,12.0,2.0,11.0,30.0,11.0,19.0,,6.0,2.0,4.0,1.0,14.0,2.0,4.0,136.0,2.0,169.0,19.0,9.0,14.0,,1.0,97.0,1.0,441.0,27.0,8.0,,5.0,2.0,82.0,2.0,6.0,16.0,2.0,15.0,21.0,21.0,58.0,289.0,2.0,2.0,11.0,36.0,6.0,6.0,1.0,393.0,4.0,587.0,17.0,3.0,6.0,12.0,13.0,242.0,26.0,36.0,31.0,8.0,6.0,6.0,2.0,17.0,6.0,115.0,390.0,9.0,263.0,2.0,42.0,7.0,9.0,9.0,5.0,17.0,228.0,84.0,2.0,5.0,8.0,8.0,1.0,16.0,4.0,3.0,7.0,23.0,8.0,322.0,123.0,9.0,,9.0,4.0,142.0,69.0,52.0,56.0,2.0,56.0,842.0,33.0,2.0,1.0,2.0,2.0,1.0,93.0,159.0,,3.0,200.0,471.0,14.0,1.0,2.0,70.0,2.0,19.0,,10.0,3.0,2.0,33.0,35.0,15.0,11.0,2.0,7.0,96.0,3.0,42.0,2.0,41.0,6.0,22.0,3.0,4.0,123.0,3.0,227.0,88.0,19.0,16.0,12.0,7.0,2.0,3.0,34.0,360.0,474.0,19.0,6.0,19.0,3.0,118.0,5.0,102.0,319.0,111.0,2.0,118.0,5.0,,3.0,15.0,148.0,,20.0,3.0,5.0,2.0,2.0,18.0,,8.0,3.0,226.0,5.0,10.0,43.0,55.0,5.0,3.0,3.0,5.0,21.0,,3.0,15.0,2.0,,24.0,2.0,6.0
2015-12-28,4.0,7.0,56.0,2.0,2.0,,5.0,4.0,10.0,,1.0,10.0,7.0,,25.0,2.0,10.0,46.0,2.0,27.0,1029.0,7.0,130.0,8.0,2.0,6.0,57.0,3.0,,8.0,1.0,1.0,35.0,12.0,9.0,2.0,3.0,8.0,140.0,42.0,279.0,3.0,3.0,6.0,2.0,7.0,3.0,2.0,19.0,13.0,47.0,59.0,267.0,15.0,13.0,16.0,2.0,2.0,10.0,5.0,34.0,15.0,2.0,,92.0,5.0,329.0,66.0,7.0,2.0,1.0,22.0,4.0,3.0,11.0,7.0,2.0,51.0,4.0,5.0,202.0,22.0,3.0,201.0,653.0,697.0,4.0,,5.0,5.0,27.0,287.0,2.0,2.0,11.0,,11.0,2.0,4.0,35.0,,2.0,2.0,11.0,10.0,2.0,329.0,6.0,6.0,18.0,19.0,4.0,6.0,6.0,263.0,14.0,10.0,6.0,13.0,3.0,2.0,31.0,4.0,2.0,10.0,8.0,9.0,12.0,2.0,11.0,28.0,12.0,21.0,,6.0,2.0,3.0,1.0,7.0,3.0,4.0,137.0,2.0,165.0,19.0,9.0,12.0,,2.0,96.0,1.0,433.0,26.0,7.0,,5.0,2.0,84.0,2.0,6.0,13.0,2.0,17.0,20.0,21.0,60.0,288.0,2.0,3.0,11.0,35.0,6.0,7.0,2.0,407.0,4.0,602.0,14.0,3.0,5.0,13.0,11.0,246.0,26.0,34.0,29.0,6.0,6.0,5.0,2.0,20.0,5.0,109.0,372.0,9.0,238.0,3.0,37.0,6.0,9.0,9.0,5.0,17.0,222.0,85.0,2.0,5.0,9.0,9.0,1.0,16.0,5.0,2.0,7.0,24.0,7.0,313.0,116.0,8.0,,9.0,4.0,136.0,68.0,53.0,55.0,2.0,54.0,896.0,28.0,2.0,1.0,2.0,2.0,1.0,98.0,159.0,,3.0,198.0,476.0,14.0,2.0,2.0,69.0,2.0,17.0,1.0,10.0,3.0,2.0,32.0,36.0,14.0,10.0,2.0,7.0,96.0,3.0,42.0,2.0,40.0,6.0,23.0,3.0,4.0,115.0,3.0,217.0,83.0,17.0,14.0,13.0,7.0,3.0,3.0,28.0,367.0,488.0,18.0,6.0,19.0,3.0,113.0,5.0,94.0,318.0,113.0,2.0,125.0,5.0,,3.0,14.0,149.0,,17.0,3.0,5.0,2.0,2.0,18.0,,8.0,3.0,210.0,5.0,9.0,38.0,48.0,8.0,3.0,3.0,5.0,19.0,1.0,3.0,15.0,2.0,,26.0,2.0,6.0
2015-12-29,4.0,7.0,57.0,2.0,2.0,,5.0,4.0,10.0,,1.0,10.0,7.0,,25.0,2.0,10.0,44.0,2.0,26.0,1028.0,8.0,128.0,8.0,2.0,7.0,58.0,3.0,,7.0,1.0,1.0,34.0,12.0,11.0,2.0,4.0,8.0,138.0,42.0,279.0,3.0,3.0,5.0,2.0,7.0,3.0,2.0,19.0,14.0,48.0,58.0,267.0,14.0,13.0,16.0,2.0,2.0,10.0,5.0,33.0,18.0,2.0,,91.0,5.0,311.0,66.0,7.0,2.0,1.0,22.0,4.0,2.0,11.0,7.0,2.0,51.0,4.0,4.0,202.0,22.0,3.0,198.0,636.0,689.0,4.0,,5.0,5.0,25.0,290.0,2.0,2.0,11.0,,11.0,2.0,4.0,34.0,,2.0,2.0,11.0,10.0,2.0,329.0,6.0,6.0,18.0,18.0,4.0,6.0,6.0,263.0,14.0,10.0,6.0,13.0,3.0,2.0,31.0,4.0,2.0,10.0,8.0,9.0,12.0,2.0,11.0,29.0,11.0,21.0,,6.0,2.0,3.0,1.0,8.0,3.0,4.0,134.0,2.0,165.0,19.0,9.0,12.0,,2.0,98.0,1.0,431.0,25.0,7.0,,5.0,2.0,87.0,1.0,6.0,13.0,2.0,17.0,20.0,21.0,60.0,283.0,2.0,3.0,11.0,32.0,6.0,6.0,2.0,407.0,4.0,591.0,14.0,3.0,5.0,14.0,11.0,243.0,26.0,34.0,29.0,6.0,6.0,5.0,2.0,20.0,6.0,110.0,372.0,9.0,239.0,3.0,37.0,6.0,9.0,9.0,5.0,16.0,222.0,86.0,2.0,5.0,8.0,9.0,1.0,15.0,5.0,2.0,7.0,24.0,8.0,313.0,120.0,9.0,,9.0,4.0,136.0,67.0,53.0,54.0,2.0,54.0,867.0,30.0,2.0,1.0,2.0,2.0,1.0,99.0,157.0,,3.0,198.0,476.0,14.0,2.0,2.0,69.0,2.0,18.0,,10.0,3.0,2.0,32.0,36.0,14.0,10.0,2.0,7.0,97.0,3.0,41.0,2.0,40.0,6.0,23.0,3.0,4.0,116.0,3.0,216.0,84.0,17.0,14.0,13.0,7.0,3.0,3.0,29.0,367.0,486.0,18.0,6.0,19.0,3.0,111.0,5.0,91.0,314.0,113.0,2.0,124.0,5.0,,3.0,14.0,149.0,,17.0,3.0,5.0,2.0,2.0,18.0,,8.0,3.0,208.0,5.0,9.0,36.0,48.0,7.0,3.0,3.0,5.0,20.0,,3.0,15.0,2.0,,26.0,2.0,6.0
2015-12-30,4.0,7.0,57.0,2.0,2.0,,5.0,4.0,10.0,,1.0,10.0,7.0,,24.0,2.0,10.0,43.0,2.0,26.0,1037.0,9.0,129.0,8.0,2.0,6.0,59.0,3.0,,7.0,1.0,1.0,36.0,12.0,11.0,2.0,4.0,8.0,137.0,42.0,279.0,3.0,3.0,6.0,2.0,7.0,2.0,2.0,20.0,14.0,49.0,60.0,270.0,14.0,13.0,16.0,2.0,2.0,10.0,6.0,34.0,19.0,2.0,,90.0,5.0,313.0,67.0,7.0,2.0,1.0,20.0,4.0,2.0,12.0,7.0,2.0,52.0,4.0,5.0,204.0,22.0,3.0,201.0,640.0,694.0,4.0,,5.0,5.0,27.0,293.0,2.0,2.0,11.0,,11.0,2.0,4.0,34.0,,2.0,2.0,11.0,10.0,2.0,329.0,6.0,6.0,19.0,17.0,4.0,6.0,6.0,262.0,14.0,11.0,6.0,15.0,3.0,2.0,30.0,4.0,2.0,10.0,8.0,9.0,12.0,2.0,11.0,29.0,12.0,22.0,,6.0,2.0,3.0,1.0,9.0,3.0,4.0,136.0,2.0,165.0,18.0,8.0,13.0,,2.0,97.0,1.0,425.0,26.0,7.0,,5.0,2.0,87.0,1.0,6.0,13.0,2.0,17.0,20.0,20.0,60.0,285.0,2.0,3.0,11.0,34.0,6.0,7.0,2.0,410.0,4.0,588.0,14.0,3.0,5.0,11.0,11.0,244.0,26.0,35.0,29.0,6.0,7.0,6.0,2.0,19.0,5.0,111.0,374.0,9.0,238.0,3.0,38.0,7.0,9.0,9.0,5.0,15.0,224.0,84.0,2.0,5.0,11.0,9.0,1.0,15.0,5.0,3.0,7.0,23.0,6.0,323.0,117.0,9.0,,9.0,4.0,135.0,68.0,54.0,55.0,2.0,54.0,871.0,29.0,1.0,1.0,2.0,2.0,1.0,98.0,158.0,,3.0,199.0,475.0,14.0,2.0,2.0,69.0,2.0,18.0,,10.0,3.0,2.0,31.0,36.0,15.0,10.0,2.0,7.0,94.0,3.0,43.0,2.0,40.0,6.0,23.0,3.0,4.0,116.0,3.0,216.0,84.0,18.0,14.0,13.0,7.0,2.0,3.0,31.0,367.0,483.0,18.0,6.0,19.0,3.0,111.0,5.0,91.0,317.0,111.0,2.0,126.0,5.0,,3.0,14.0,149.0,,17.0,4.0,5.0,2.0,2.0,19.0,,8.0,3.0,207.0,5.0,9.0,37.0,47.0,7.0,3.0,3.0,5.0,19.0,1.0,3.0,15.0,2.0,,26.0,2.0,6.0
2015-12-31,2.0,7.0,49.0,2.0,2.0,,5.0,3.0,10.0,1.0,1.0,7.0,5.0,,21.0,2.0,8.0,44.0,2.0,21.0,793.0,5.0,108.0,6.0,2.0,6.0,51.0,2.0,,5.0,1.0,1.0,26.0,11.0,8.0,2.0,3.0,7.0,104.0,32.0,233.0,2.0,2.0,5.0,2.0,4.0,2.0,2.0,16.0,10.0,41.0,41.0,205.0,16.0,10.0,12.0,2.0,2.0,9.0,4.0,27.0,14.0,2.0,,73.0,5.0,261.0,54.0,7.0,2.0,1.0,16.0,4.0,2.0,9.0,3.0,1.0,34.0,4.0,4.0,154.0,21.0,3.0,159.0,484.0,618.0,2.0,,4.0,5.0,20.0,205.0,2.0,2.0,8.0,,11.0,1.0,5.0,28.0,,1.0,2.0,8.0,8.0,2.0,227.0,4.0,6.0,14.0,15.0,3.0,4.0,5.0,241.0,11.0,9.0,5.0,13.0,3.0,2.0,24.0,1.0,2.0,9.0,7.0,7.0,10.0,2.0,11.0,20.0,8.0,16.0,,4.0,2.0,3.0,1.0,8.0,3.0,3.0,132.0,2.0,118.0,17.0,7.0,9.0,,2.0,77.0,1.0,346.0,22.0,5.0,,4.0,2.0,65.0,2.0,5.0,12.0,1.0,17.0,18.0,17.0,49.0,255.0,2.0,3.0,9.0,33.0,6.0,4.0,2.0,350.0,4.0,477.0,8.0,3.0,4.0,9.0,11.0,194.0,23.0,33.0,24.0,4.0,4.0,5.0,2.0,15.0,4.0,86.0,320.0,7.0,181.0,3.0,29.0,6.0,6.0,7.0,5.0,13.0,215.0,69.0,2.0,3.0,7.0,6.0,1.0,10.0,4.0,2.0,6.0,17.0,6.0,238.0,97.0,8.0,,8.0,3.0,94.0,65.0,41.0,43.0,2.0,40.0,721.0,19.0,2.0,1.0,2.0,2.0,1.0,85.0,133.0,,3.0,159.0,407.0,13.0,2.0,1.0,55.0,2.0,14.0,,7.0,3.0,2.0,28.0,27.0,14.0,9.0,2.0,6.0,74.0,3.0,30.0,2.0,31.0,4.0,21.0,3.0,3.0,102.0,3.0,171.0,70.0,14.0,12.0,9.0,6.0,2.0,2.0,19.0,308.0,372.0,17.0,4.0,14.0,3.0,77.0,5.0,91.0,224.0,77.0,2.0,87.0,5.0,,3.0,13.0,108.0,,16.0,3.0,4.0,2.0,2.0,15.0,,6.0,3.0,182.0,4.0,8.0,31.0,42.0,5.0,2.0,3.0,5.0,16.0,,2.0,12.0,2.0,,17.0,2.0,6.0
2016-01-01,3.0,,44.0,2.0,1.0,,4.0,4.0,10.0,,1.0,5.0,6.0,,20.0,,5.0,36.0,2.0,21.0,804.0,4.0,107.0,6.0,2.0,5.0,45.0,1.0,,6.0,1.0,2.0,23.0,8.0,6.0,2.0,4.0,2.0,104.0,36.0,239.0,3.0,2.0,6.0,2.0,5.0,3.0,2.0,15.0,12.0,32.0,42.0,207.0,15.0,10.0,11.0,1.0,,8.0,5.0,29.0,6.0,2.0,,67.0,1.0,283.0,45.0,,2.0,1.0,17.0,,4.0,7.0,4.0,1.0,25.0,1.0,4.0,149.0,13.0,,159.0,559.0,523.0,3.0,,4.0,3.0,17.0,219.0,2.0,2.0,9.0,,11.0,2.0,4.0,27.0,,2.0,2.0,11.0,5.0,1.0,260.0,5.0,6.0,7.0,17.0,3.0,5.0,6.0,250.0,7.0,4.0,3.0,8.0,3.0,,22.0,2.0,,6.0,5.0,7.0,6.0,,6.0,14.0,10.0,13.0,,5.0,1.0,3.0,1.0,8.0,3.0,3.0,140.0,2.0,115.0,16.0,7.0,9.0,,2.0,86.0,1.0,370.0,18.0,6.0,,4.0,2.0,61.0,2.0,6.0,11.0,1.0,16.0,17.0,16.0,48.0,259.0,2.0,3.0,7.0,36.0,6.0,4.0,2.0,362.0,2.0,523.0,8.0,3.0,2.0,9.0,6.0,197.0,24.0,37.0,16.0,3.0,4.0,1.0,1.0,12.0,5.0,84.0,340.0,3.0,180.0,3.0,28.0,6.0,7.0,4.0,,12.0,207.0,74.0,2.0,3.0,2.0,8.0,1.0,10.0,5.0,1.0,6.0,15.0,7.0,228.0,99.0,7.0,,8.0,3.0,100.0,70.0,34.0,34.0,1.0,42.0,570.0,23.0,2.0,,1.0,2.0,1.0,87.0,134.0,,3.0,152.0,414.0,8.0,2.0,2.0,49.0,2.0,15.0,1.0,9.0,3.0,2.0,29.0,29.0,10.0,7.0,1.0,6.0,74.0,3.0,30.0,2.0,30.0,5.0,14.0,,,105.0,1.0,181.0,74.0,15.0,15.0,11.0,6.0,3.0,2.0,17.0,321.0,427.0,6.0,4.0,16.0,2.0,82.0,,95.0,239.0,79.0,1.0,95.0,4.0,,,12.0,107.0,,19.0,3.0,4.0,,2.0,11.0,,5.0,,191.0,4.0,7.0,28.0,42.0,4.0,3.0,2.0,4.0,16.0,1.0,2.0,13.0,2.0,,7.0,,6.0
2016-01-02,3.0,,55.0,2.0,2.0,,5.0,5.0,10.0,,1.0,7.0,6.0,,25.0,,8.0,45.0,1.0,22.0,976.0,9.0,124.0,7.0,3.0,2.0,53.0,2.0,,7.0,1.0,1.0,31.0,10.0,9.0,2.0,3.0,3.0,123.0,41.0,261.0,3.0,2.0,5.0,1.0,7.0,3.0,2.0,19.0,13.0,39.0,52.0,258.0,18.0,11.0,17.0,1.0,2.0,9.0,6.0,33.0,12.0,2.0,,79.0,1.0,261.0,59.0,,2.0,1.0,18.0,,4.0,11.0,6.0,2.0,41.0,2.0,5.0,176.0,18.0,,176.0,612.0,521.0,3.0,,5.0,6.0,22.0,293.0,1.0,2.0,13.0,,15.0,1.0,3.0,29.0,,2.0,1.0,10.0,5.0,1.0,270.0,7.0,6.0,15.0,19.0,4.0,7.0,6.0,281.0,11.0,10.0,4.0,9.0,2.0,,25.0,4.0,,9.0,5.0,9.0,7.0,,9.0,21.0,13.0,18.0,,6.0,2.0,4.0,1.0,12.0,2.0,4.0,135.0,1.0,155.0,16.0,8.0,9.0,,1.0,88.0,1.0,418.0,24.0,8.0,,5.0,2.0,71.0,2.0,5.0,16.0,2.0,15.0,22.0,14.0,52.0,270.0,2.0,1.0,10.0,37.0,6.0,5.0,1.0,384.0,3.0,566.0,13.0,3.0,2.0,10.0,10.0,229.0,26.0,37.0,21.0,7.0,4.0,3.0,1.0,12.0,4.0,102.0,392.0,5.0,245.0,2.0,36.0,7.0,7.0,4.0,,16.0,215.0,76.0,2.0,5.0,2.0,8.0,2.0,12.0,4.0,2.0,7.0,23.0,7.0,307.0,114.0,11.0,,9.0,3.0,128.0,72.0,41.0,46.0,2.0,51.0,613.0,28.0,2.0,,2.0,2.0,1.0,89.0,149.0,,3.0,183.0,458.0,9.0,1.0,1.0,62.0,2.0,17.0,,8.0,3.0,2.0,36.0,32.0,15.0,8.0,2.0,6.0,92.0,2.0,33.0,1.0,39.0,6.0,18.0,,,123.0,1.0,205.0,84.0,22.0,17.0,13.0,8.0,3.0,3.0,27.0,343.0,449.0,7.0,5.0,18.0,3.0,99.0,,105.0,311.0,105.0,2.0,99.0,5.0,,,14.0,139.0,,24.0,5.0,5.0,,2.0,13.0,,7.0,,217.0,5.0,9.0,36.0,51.0,3.0,2.0,3.0,5.0,17.0,1.0,2.0,15.0,2.0,,12.0,2.0,5.0
2016-01-03,3.0,,57.0,2.0,2.0,,5.0,4.0,10.0,1.0,1.0,8.0,6.0,,26.0,,8.0,43.0,1.0,23.0,1039.0,7.0,136.0,8.0,4.0,3.0,59.0,2.0,,8.0,1.0,1.0,33.0,12.0,9.0,2.0,4.0,3.0,138.0,42.0,280.0,3.0,3.0,5.0,1.0,7.0,2.0,2.0,20.0,11.0,40.0,63.0,286.0,17.0,13.0,16.0,1.0,2.0,9.0,6.0,38.0,14.0,2.0,,87.0,1.0,315.0,63.0,,2.0,2.0,22.0,,6.0,10.0,7.0,2.0,46.0,1.0,5.0,195.0,19.0,,194.0,684.0,592.0,4.0,,5.0,5.0,23.0,298.0,1.0,2.0,12.0,,13.0,1.0,4.0,33.0,,2.0,1.0,11.0,6.0,2.0,312.0,6.0,6.0,14.0,21.0,4.0,6.0,6.0,285.0,9.0,12.0,5.0,10.0,3.0,,31.0,4.0,,8.0,5.0,8.0,8.0,,9.0,19.0,12.0,19.0,,5.0,2.0,5.0,1.0,13.0,2.0,4.0,136.0,2.0,166.0,18.0,9.0,12.0,,1.0,96.0,1.0,433.0,26.0,8.0,,5.0,1.0,80.0,2.0,6.0,16.0,2.0,15.0,21.0,18.0,54.0,289.0,2.0,2.0,11.0,36.0,6.0,6.0,1.0,395.0,3.0,593.0,14.0,3.0,2.0,11.0,11.0,238.0,26.0,36.0,21.0,8.0,5.0,3.0,3.0,14.0,5.0,113.0,387.0,7.0,261.0,2.0,39.0,7.0,9.0,6.0,,17.0,220.0,88.0,2.0,5.0,2.0,8.0,1.0,13.0,4.0,2.0,8.0,17.0,7.0,323.0,125.0,9.0,,9.0,4.0,142.0,70.0,41.0,53.0,2.0,58.0,670.0,33.0,2.0,1.0,2.0,2.0,1.0,91.0,157.0,,3.0,200.0,471.0,9.0,1.0,2.0,72.0,2.0,18.0,,11.0,3.0,2.0,33.0,35.0,15.0,7.0,2.0,7.0,101.0,3.0,37.0,2.0,42.0,6.0,19.0,,,122.0,1.0,226.0,87.0,19.0,18.0,12.0,7.0,2.0,3.0,31.0,357.0,483.0,7.0,6.0,20.0,3.0,118.0,,104.0,317.0,112.0,2.0,118.0,5.0,,,15.0,145.0,,20.0,3.0,5.0,,2.0,14.0,,8.0,,226.0,5.0,9.0,40.0,53.0,3.0,3.0,3.0,5.0,22.0,,3.0,16.0,2.0,,11.0,2.0,6.0
2016-01-04,4.0,,53.0,2.0,2.0,,5.0,4.0,10.0,,1.0,8.0,7.0,,27.0,,7.0,45.0,2.0,21.0,1015.0,7.0,131.0,7.0,4.0,4.0,58.0,3.0,,6.0,1.0,1.0,29.0,12.0,7.0,2.0,2.0,3.0,129.0,42.0,304.0,3.0,3.0,6.0,2.0,7.0,3.0,2.0,18.0,14.0,44.0,58.0,262.0,14.0,13.0,16.0,2.0,2.0,9.0,5.0,34.0,8.0,2.0,,91.0,1.0,310.0,57.0,,2.0,2.0,20.0,,5.0,10.0,7.0,2.0,39.0,2.0,5.0,201.0,18.0,,218.0,656.0,549.0,4.0,,5.0,3.0,21.0,288.0,2.0,2.0,11.0,,11.0,2.0,4.0,33.0,,2.0,2.0,10.0,6.0,2.0,335.0,6.0,6.0,13.0,18.0,4.0,6.0,5.0,258.0,11.0,6.0,5.0,8.0,3.0,,30.0,4.0,,9.0,6.0,9.0,5.0,,9.0,21.0,13.0,19.0,,4.0,2.0,5.0,1.0,9.0,3.0,4.0,136.0,2.0,162.0,17.0,9.0,9.0,,2.0,100.0,1.0,431.0,24.0,7.0,,5.0,2.0,73.0,2.0,6.0,13.0,2.0,17.0,20.0,18.0,54.0,284.0,2.0,3.0,11.0,35.0,6.0,6.0,2.0,410.0,3.0,600.0,12.0,3.0,3.0,12.0,8.0,269.0,25.0,35.0,19.0,7.0,5.0,2.0,2.0,19.0,5.0,107.0,362.0,6.0,241.0,3.0,35.0,6.0,8.0,5.0,,15.0,213.0,87.0,2.0,5.0,2.0,9.0,1.0,12.0,5.0,1.0,8.0,18.0,7.0,306.0,118.0,7.0,,9.0,4.0,136.0,68.0,43.0,50.0,2.0,55.0,689.0,27.0,2.0,1.0,2.0,2.0,1.0,90.0,153.0,,3.0,205.0,463.0,8.0,2.0,2.0,64.0,2.0,17.0,1.0,11.0,3.0,2.0,31.0,37.0,14.0,9.0,2.0,7.0,99.0,3.0,40.0,2.0,37.0,6.0,17.0,,1.0,113.0,1.0,213.0,85.0,16.0,16.0,13.0,7.0,3.0,3.0,24.0,355.0,489.0,6.0,6.0,19.0,3.0,112.0,,96.0,309.0,111.0,2.0,125.0,5.0,,,14.0,146.0,,17.0,3.0,5.0,,2.0,15.0,,8.0,,209.0,5.0,9.0,37.0,47.0,5.0,3.0,3.0,5.0,19.0,1.0,3.0,15.0,2.0,,14.0,2.0,6.0
2016-01-05,6.0,,51.0,2.0,3.0,,4.0,4.0,10.0,,2.0,6.0,7.0,,24.0,,7.0,42.0,2.0,17.0,974.0,9.0,120.0,7.0,4.0,7.0,54.0,3.0,,5.0,2.0,1.0,28.0,12.0,8.0,2.0,3.0,3.0,128.0,37.0,319.0,2.0,3.0,4.0,2.0,6.0,3.0,2.0,20.0,10.0,41.0,60.0,251.0,7.0,14.0,16.0,2.0,2.0,11.0,5.0,32.0,10.0,2.0,,86.0,2.0,284.0,55.0,,2.0,1.0,20.0,,3.0,9.0,7.0,3.0,41.0,2.0,4.0,199.0,21.0,,220.0,572.0,534.0,4.0,,4.0,3.0,22.0,317.0,1.0,2.0,9.0,,8.0,2.0,5.0,29.0,,2.0,2.0,10.0,7.0,2.0,295.0,6.0,5.0,13.0,18.0,5.0,5.0,5.0,231.0,10.0,11.0,5.0,10.0,3.0,,26.0,3.0,,5.0,6.0,9.0,7.0,,6.0,24.0,14.0,19.0,,4.0,3.0,1.0,1.0,4.0,3.0,3.0,121.0,1.0,158.0,17.0,8.0,11.0,,2.0,88.0,1.0,363.0,22.0,7.0,,7.0,2.0,75.0,2.0,5.0,13.0,2.0,17.0,11.0,13.0,51.0,249.0,2.0,2.0,11.0,28.0,6.0,8.0,2.0,419.0,3.0,535.0,13.0,3.0,2.0,12.0,9.0,290.0,25.0,30.0,21.0,8.0,4.0,1.0,2.0,18.0,6.0,111.0,334.0,9.0,230.0,3.0,38.0,7.0,8.0,7.0,,17.0,186.0,91.0,2.0,4.0,7.0,9.0,1.0,11.0,6.0,2.0,7.0,20.0,6.0,307.0,112.0,2.0,,7.0,3.0,128.0,58.0,45.0,44.0,2.0,54.0,619.0,24.0,2.0,,2.0,2.0,1.0,78.0,133.0,,3.0,190.0,395.0,8.0,2.0,2.0,62.0,2.0,15.0,,10.0,3.0,2.0,28.0,33.0,14.0,8.0,2.0,6.0,89.0,3.0,37.0,2.0,33.0,6.0,21.0,,2.0,97.0,2.0,189.0,79.0,18.0,15.0,14.0,7.0,3.0,2.0,26.0,317.0,428.0,7.0,5.0,16.0,3.0,109.0,,86.0,283.0,102.0,2.0,118.0,4.0,,,11.0,143.0,,13.0,3.0,4.0,,2.0,14.0,,7.0,,193.0,5.0,5.0,41.0,42.0,3.0,7.0,2.0,5.0,18.0,,3.0,11.0,2.0,,14.0,2.0,5.0
2016-01-06,6.0,,48.0,2.0,3.0,,5.0,4.0,10.0,,1.0,6.0,7.0,,25.0,,9.0,39.0,2.0,18.0,984.0,10.0,118.0,7.0,6.0,7.0,49.0,3.0,,7.0,2.0,,30.0,9.0,8.0,2.0,4.0,3.0,133.0,38.0,317.0,3.0,3.0,6.0,2.0,6.0,2.0,2.0,20.0,8.0,43.0,62.0,232.0,7.0,15.0,17.0,2.0,2.0,12.0,6.0,34.0,9.0,2.0,,87.0,2.0,325.0,58.0,,2.0,1.0,19.0,,4.0,8.0,7.0,3.0,41.0,2.0,4.0,201.0,21.0,,225.0,565.0,545.0,4.0,,6.0,4.0,21.0,321.0,2.0,2.0,11.0,,9.0,2.0,5.0,29.0,,2.0,2.0,10.0,8.0,2.0,295.0,6.0,5.0,14.0,19.0,5.0,4.0,5.0,237.0,10.0,12.0,5.0,11.0,3.0,,25.0,3.0,,7.0,7.0,9.0,8.0,,6.0,27.0,14.0,19.0,,5.0,3.0,1.0,1.0,5.0,3.0,4.0,125.0,1.0,154.0,18.0,8.0,10.0,,2.0,85.0,1.0,363.0,24.0,7.0,,7.0,2.0,75.0,2.0,5.0,12.0,2.0,16.0,11.0,14.0,50.0,250.0,2.0,3.0,11.0,30.0,6.0,9.0,2.0,399.0,3.0,537.0,13.0,3.0,3.0,13.0,9.0,289.0,24.0,30.0,21.0,8.0,6.0,1.0,1.0,17.0,7.0,109.0,340.0,7.0,221.0,3.0,38.0,7.0,8.0,7.0,,14.0,186.0,94.0,2.0,4.0,9.0,8.0,1.0,11.0,6.0,2.0,7.0,19.0,6.0,320.0,113.0,4.0,,7.0,3.0,125.0,58.0,48.0,45.0,2.0,54.0,606.0,28.0,2.0,,2.0,2.0,1.0,77.0,136.0,,3.0,189.0,425.0,9.0,2.0,2.0,63.0,2.0,14.0,1.0,10.0,3.0,2.0,28.0,33.0,13.0,6.0,2.0,7.0,83.0,3.0,40.0,2.0,31.0,6.0,20.0,,3.0,104.0,2.0,197.0,78.0,18.0,16.0,14.0,7.0,2.0,2.0,26.0,311.0,429.0,8.0,5.0,17.0,3.0,109.0,,82.0,275.0,106.0,2.0,117.0,4.0,,,11.0,149.0,,13.0,4.0,5.0,,2.0,15.0,,7.0,,188.0,5.0,5.0,41.0,42.0,3.0,7.0,3.0,6.0,15.0,,3.0,12.0,2.0,,13.0,2.0,6.0
2016-01-07,7.0,,49.0,2.0,3.0,,5.0,4.0,10.0,1.0,2.0,8.0,7.0,,25.0,,9.0,44.0,2.0,19.0,1028.0,10.0,120.0,7.0,6.0,8.0,50.0,3.0,,7.0,2.0,,31.0,9.0,7.0,2.0,2.0,3.0,134.0,40.0,326.0,3.0,3.0,5.0,2.0,7.0,2.0,2.0,21.0,8.0,43.0,62.0,236.0,7.0,16.0,17.0,2.0,2.0,12.0,6.0,32.0,8.0,2.0,,95.0,2.0,327.0,61.0,,2.0,1.0,23.0,,5.0,9.0,7.0,3.0,46.0,2.0,5.0,201.0,22.0,,227.0,598.0,557.0,4.0,,6.0,4.0,24.0,330.0,2.0,2.0,11.0,,9.0,2.0,6.0,30.0,,2.0,2.0,10.0,9.0,2.0,300.0,6.0,6.0,13.0,19.0,6.0,5.0,5.0,247.0,10.0,13.0,5.0,11.0,3.0,,30.0,3.0,,6.0,7.0,9.0,8.0,,8.0,27.0,16.0,19.0,,5.0,3.0,1.0,1.0,4.0,3.0,4.0,123.0,2.0,155.0,17.0,9.0,11.0,,2.0,86.0,1.0,409.0,23.0,7.0,,8.0,2.0,76.0,2.0,6.0,12.0,2.0,17.0,11.0,16.0,51.0,264.0,2.0,3.0,11.0,31.0,6.0,8.0,2.0,411.0,3.0,556.0,14.0,3.0,3.0,13.0,10.0,298.0,26.0,30.0,22.0,8.0,5.0,2.0,2.0,17.0,8.0,112.0,342.0,8.0,222.0,3.0,40.0,6.0,8.0,7.0,,15.0,198.0,95.0,2.0,4.0,8.0,9.0,1.0,12.0,6.0,2.0,7.0,21.0,6.0,338.0,117.0,3.0,,7.0,3.0,124.0,60.0,48.0,47.0,2.0,55.0,638.0,30.0,2.0,1.0,2.0,2.0,1.0,79.0,137.0,,3.0,194.0,435.0,9.0,2.0,2.0,65.0,2.0,15.0,,10.0,3.0,2.0,31.0,33.0,13.0,7.0,2.0,7.0,87.0,3.0,43.0,2.0,34.0,6.0,20.0,,3.0,104.0,2.0,209.0,76.0,18.0,16.0,14.0,7.0,2.0,2.0,27.0,322.0,447.0,9.0,5.0,16.0,3.0,111.0,,84.0,292.0,111.0,2.0,122.0,5.0,,,10.0,151.0,,14.0,3.0,4.0,,2.0,15.0,,7.0,,196.0,6.0,5.0,43.0,47.0,3.0,4.0,3.0,6.0,19.0,,3.0,12.0,2.0,,14.0,2.0,6.0
2016-01-08,7.0,,48.0,2.0,3.0,,5.0,4.0,10.0,,1.0,8.0,7.0,,25.0,,9.0,42.0,2.0,19.0,1028.0,10.0,121.0,7.0,6.0,8.0,53.0,3.0,,7.0,2.0,,31.0,9.0,6.0,2.0,4.0,5.0,135.0,41.0,326.0,3.0,3.0,6.0,2.0,7.0,3.0,2.0,21.0,8.0,43.0,62.0,236.0,7.0,16.0,17.0,2.0,2.0,12.0,6.0,35.0,7.0,2.0,,96.0,2.0,327.0,62.0,,2.0,1.0,23.0,,5.0,8.0,7.0,3.0,46.0,2.0,5.0,201.0,22.0,,227.0,593.0,559.0,4.0,,6.0,4.0,23.0,324.0,2.0,2.0,11.0,,9.0,2.0,6.0,30.0,,2.0,2.0,10.0,9.0,2.0,298.0,6.0,6.0,13.0,19.0,6.0,5.0,5.0,248.0,10.0,13.0,5.0,11.0,3.0,,29.0,3.0,,6.0,7.0,9.0,8.0,,8.0,26.0,15.0,18.0,,5.0,3.0,1.0,1.0,4.0,3.0,4.0,132.0,2.0,154.0,18.0,9.0,11.0,,2.0,85.0,1.0,409.0,24.0,7.0,,8.0,2.0,75.0,2.0,5.0,12.0,2.0,17.0,11.0,16.0,52.0,257.0,2.0,3.0,11.0,32.0,6.0,9.0,2.0,426.0,3.0,557.0,14.0,3.0,3.0,13.0,9.0,297.0,25.0,35.0,22.0,8.0,6.0,1.0,2.0,17.0,7.0,115.0,350.0,8.0,222.0,3.0,40.0,7.0,8.0,7.0,,15.0,197.0,94.0,2.0,4.0,8.0,9.0,1.0,12.0,6.0,1.0,7.0,22.0,6.0,337.0,118.0,3.0,,8.0,3.0,125.0,62.0,49.0,47.0,2.0,55.0,638.0,31.0,2.0,1.0,2.0,2.0,1.0,79.0,140.0,,3.0,191.0,434.0,9.0,2.0,2.0,68.0,2.0,15.0,1.0,10.0,3.0,2.0,31.0,33.0,13.0,8.0,2.0,7.0,86.0,3.0,43.0,2.0,34.0,6.0,19.0,,3.0,103.0,2.0,205.0,79.0,18.0,16.0,14.0,7.0,3.0,2.0,27.0,320.0,451.0,9.0,5.0,16.0,3.0,115.0,,83.0,294.0,112.0,2.0,122.0,5.0,,,10.0,149.0,,14.0,3.0,4.0,,2.0,15.0,,7.0,,195.0,6.0,5.0,43.0,47.0,3.0,5.0,3.0,5.0,18.0,,3.0,12.0,2.0,,14.0,2.0,6.0
2016-01-09,3.0,,34.0,2.0,2.0,,4.0,4.0,10.0,,1.0,4.0,4.0,,24.0,,6.0,39.0,1.0,21.0,739.0,7.0,88.0,5.0,3.0,4.0,44.0,2.0,,4.0,2.0,,20.0,7.0,6.0,2.0,2.0,2.0,94.0,32.0,213.0,2.0,2.0,5.0,1.0,4.0,3.0,1.0,14.0,8.0,41.0,43.0,206.0,9.0,8.0,13.0,1.0,2.0,7.0,4.0,22.0,5.0,1.0,,63.0,1.0,254.0,43.0,,2.0,1.0,17.0,,4.0,6.0,4.0,2.0,24.0,2.0,4.0,139.0,12.0,,153.0,444.0,452.0,3.0,,5.0,2.0,15.0,231.0,1.0,2.0,9.0,,12.0,1.0,4.0,22.0,,1.0,1.0,6.0,4.0,1.0,184.0,6.0,5.0,10.0,17.0,4.0,5.0,5.0,255.0,8.0,9.0,5.0,6.0,2.0,,24.0,2.0,,3.0,4.0,7.0,6.0,,5.0,19.0,11.0,11.0,,5.0,2.0,2.0,1.0,8.0,2.0,4.0,125.0,1.0,112.0,15.0,6.0,5.0,,1.0,59.0,1.0,288.0,19.0,5.0,,5.0,2.0,59.0,1.0,4.0,13.0,2.0,15.0,17.0,9.0,35.0,224.0,2.0,1.0,10.0,35.0,6.0,6.0,1.0,373.0,2.0,445.0,10.0,3.0,1.0,8.0,5.0,167.0,21.0,37.0,13.0,6.0,4.0,1.0,2.0,11.0,3.0,81.0,357.0,5.0,177.0,2.0,28.0,5.0,5.0,4.0,,15.0,190.0,64.0,2.0,2.0,6.0,5.0,1.0,7.0,4.0,1.0,5.0,13.0,4.0,225.0,98.0,10.0,,7.0,2.0,89.0,65.0,27.0,36.0,2.0,40.0,471.0,19.0,1.0,,2.0,2.0,1.0,73.0,112.0,,2.0,155.0,385.0,5.0,1.0,1.0,49.0,1.0,11.0,,8.0,3.0,2.0,33.0,30.0,12.0,5.0,2.0,4.0,62.0,2.0,24.0,1.0,26.0,4.0,17.0,1.0,2.0,119.0,2.0,150.0,58.0,14.0,14.0,9.0,8.0,3.0,2.0,16.0,272.0,343.0,5.0,4.0,11.0,3.0,73.0,,94.0,223.0,72.0,2.0,86.0,4.0,,,11.0,104.0,,19.0,5.0,5.0,,2.0,11.0,,5.0,,181.0,3.0,5.0,27.0,47.0,3.0,3.0,2.0,5.0,11.0,,2.0,8.0,2.0,,6.0,2.0,5.0
2016-01-10,6.0,,43.0,2.0,2.0,,5.0,4.0,10.0,1.0,2.0,8.0,6.0,,24.0,,7.0,41.0,1.0,22.0,951.0,7.0,110.0,6.0,4.0,8.0,46.0,2.0,,5.0,3.0,,28.0,10.0,6.0,2.0,4.0,3.0,115.0,39.0,267.0,3.0,3.0,5.0,1.0,5.0,2.0,2.0,19.0,7.0,40.0,52.0,209.0,10.0,14.0,15.0,1.0,2.0,10.0,6.0,31.0,8.0,2.0,,86.0,2.0,284.0,54.0,,2.0,1.0,19.0,,5.0,7.0,6.0,3.0,39.0,2.0,5.0,176.0,17.0,,205.0,550.0,520.0,4.0,,6.0,2.0,22.0,309.0,1.0,2.0,9.0,,11.0,1.0,6.0,24.0,,2.0,1.0,10.0,7.0,2.0,250.0,6.0,6.0,10.0,21.0,5.0,5.0,5.0,242.0,10.0,10.0,4.0,11.0,3.0,,30.0,5.0,,7.0,7.0,9.0,9.0,,7.0,23.0,11.0,16.0,,5.0,3.0,1.0,1.0,7.0,2.0,3.0,125.0,2.0,133.0,17.0,7.0,9.0,,1.0,81.0,1.0,363.0,24.0,6.0,,7.0,1.0,73.0,1.0,6.0,11.0,2.0,14.0,12.0,12.0,45.0,270.0,2.0,2.0,10.0,33.0,6.0,6.0,1.0,405.0,3.0,510.0,13.0,3.0,2.0,12.0,7.0,236.0,26.0,32.0,19.0,8.0,5.0,1.0,2.0,13.0,6.0,103.0,341.0,5.0,191.0,2.0,35.0,6.0,8.0,6.0,,15.0,197.0,82.0,2.0,4.0,6.0,8.0,1.0,11.0,5.0,2.0,7.0,20.0,6.0,312.0,111.0,5.0,,8.0,3.0,108.0,62.0,38.0,44.0,2.0,49.0,583.0,28.0,2.0,1.0,2.0,2.0,1.0,74.0,129.0,,3.0,180.0,415.0,7.0,1.0,2.0,57.0,1.0,14.0,,10.0,3.0,2.0,33.0,32.0,12.0,7.0,2.0,7.0,79.0,3.0,37.0,2.0,32.0,4.0,18.0,,3.0,103.0,2.0,189.0,75.0,16.0,16.0,12.0,7.0,2.0,2.0,25.0,312.0,420.0,8.0,5.0,15.0,3.0,94.0,,88.0,290.0,96.0,2.0,104.0,5.0,,,10.0,133.0,,15.0,3.0,4.0,,2.0,14.0,,7.0,,189.0,5.0,5.0,38.0,45.0,3.0,3.0,3.0,5.0,17.0,,3.0,12.0,2.0,,9.0,2.0,6.0
2016-01-11,8.0,,49.0,2.0,3.0,,5.0,4.0,10.0,,1.0,8.0,7.0,,24.0,,9.0,40.0,2.0,19.0,1046.0,10.0,122.0,7.0,6.0,8.0,50.0,3.0,,7.0,3.0,,32.0,9.0,7.0,2.0,2.0,3.0,137.0,40.0,326.0,3.0,3.0,6.0,2.0,7.0,3.0,2.0,21.0,8.0,44.0,62.0,239.0,7.0,16.0,17.0,2.0,2.0,13.0,6.0,35.0,7.0,2.0,,97.0,2.0,285.0,65.0,,2.0,1.0,23.0,,5.0,9.0,7.0,3.0,48.0,2.0,5.0,201.0,21.0,,228.0,589.0,556.0,4.0,,6.0,4.0,24.0,332.0,2.0,2.0,11.0,,9.0,2.0,6.0,31.0,,2.0,2.0,9.0,8.0,2.0,303.0,6.0,6.0,13.0,20.0,6.0,4.0,5.0,246.0,10.0,13.0,5.0,11.0,3.0,,31.0,3.0,,6.0,7.0,9.0,9.0,,8.0,27.0,15.0,19.0,,5.0,3.0,1.0,1.0,4.0,3.0,4.0,122.0,2.0,157.0,19.0,8.0,12.0,,2.0,84.0,1.0,410.0,23.0,7.0,,7.0,2.0,75.0,2.0,6.0,12.0,2.0,16.0,11.0,16.0,51.0,270.0,2.0,3.0,12.0,31.0,6.0,8.0,2.0,400.0,3.0,552.0,14.0,3.0,3.0,13.0,11.0,298.0,26.0,30.0,22.0,8.0,6.0,2.0,2.0,17.0,7.0,117.0,344.0,6.0,227.0,3.0,42.0,7.0,8.0,7.0,,15.0,194.0,96.0,2.0,4.0,8.0,9.0,1.0,13.0,5.0,2.0,7.0,21.0,6.0,344.0,118.0,3.0,,7.0,3.0,123.0,58.0,48.0,49.0,2.0,55.0,641.0,29.0,2.0,1.0,2.0,2.0,1.0,80.0,138.0,,3.0,191.0,434.0,9.0,2.0,2.0,63.0,2.0,15.0,1.0,10.0,3.0,2.0,31.0,32.0,13.0,8.0,2.0,6.0,86.0,3.0,41.0,2.0,33.0,7.0,20.0,,3.0,102.0,2.0,206.0,78.0,18.0,17.0,14.0,7.0,3.0,2.0,25.0,324.0,446.0,8.0,5.0,16.0,3.0,115.0,,79.0,294.0,111.0,2.0,120.0,5.0,,,10.0,148.0,,13.0,3.0,3.0,,2.0,14.0,,7.0,,196.0,6.0,5.0,43.0,46.0,4.0,3.0,3.0,6.0,20.0,,3.0,12.0,2.0,,14.0,2.0,6.0
2016-01-12,6.0,,48.0,2.0,3.0,,4.0,4.0,10.0,,2.0,6.0,7.0,,25.0,,8.0,38.0,2.0,17.0,1009.0,9.0,116.0,7.0,6.0,8.0,49.0,3.0,,5.0,3.0,,32.0,9.0,7.0,2.0,3.0,3.0,135.0,39.0,318.0,2.0,3.0,5.0,2.0,6.0,3.0,2.0,20.0,8.0,41.0,63.0,234.0,6.0,15.0,17.0,2.0,2.0,13.0,6.0,32.0,8.0,2.0,,89.0,2.0,282.0,60.0,,2.0,1.0,20.0,,4.0,8.0,7.0,3.0,44.0,2.0,5.0,201.0,21.0,,221.0,564.0,538.0,4.0,,5.0,3.0,22.0,328.0,1.0,2.0,11.0,,8.0,2.0,6.0,31.0,,2.0,2.0,10.0,8.0,2.0,286.0,6.0,5.0,13.0,19.0,5.0,4.0,5.0,234.0,10.0,12.0,5.0,11.0,3.0,,30.0,3.0,,6.0,7.0,9.0,8.0,,6.0,28.0,17.0,19.0,,5.0,3.0,1.0,1.0,4.0,3.0,4.0,117.0,1.0,157.0,18.0,8.0,11.0,,2.0,85.0,1.0,363.0,22.0,7.0,,6.0,2.0,74.0,2.0,6.0,12.0,2.0,17.0,11.0,13.0,50.0,250.0,2.0,2.0,11.0,28.0,6.0,10.0,2.0,390.0,3.0,529.0,14.0,3.0,3.0,13.0,9.0,288.0,23.0,29.0,21.0,8.0,5.0,2.0,1.0,17.0,7.0,114.0,333.0,7.0,228.0,3.0,39.0,7.0,8.0,7.0,,14.0,185.0,95.0,2.0,4.0,9.0,8.0,1.0,12.0,5.0,2.0,7.0,19.0,6.0,324.0,114.0,2.0,,7.0,3.0,124.0,58.0,49.0,46.0,2.0,54.0,616.0,28.0,2.0,,2.0,2.0,1.0,77.0,131.0,,3.0,185.0,376.0,9.0,2.0,2.0,62.0,2.0,15.0,,10.0,2.0,2.0,28.0,31.0,12.0,8.0,2.0,6.0,85.0,3.0,38.0,2.0,31.0,7.0,19.0,,3.0,102.0,2.0,194.0,81.0,18.0,15.0,14.0,7.0,3.0,2.0,24.0,310.0,424.0,8.0,5.0,16.0,3.0,110.0,,65.0,283.0,107.0,2.0,117.0,4.0,,,10.0,147.0,,12.0,2.0,3.0,,2.0,15.0,,7.0,,192.0,6.0,5.0,41.0,43.0,3.0,6.0,2.0,6.0,16.0,,3.0,11.0,2.0,,14.0,2.0,5.0
2016-01-13,6.0,,48.0,2.0,3.0,,5.0,4.0,10.0,,1.0,6.0,7.0,,25.0,,9.0,37.0,2.0,18.0,1019.0,10.0,120.0,7.0,6.0,8.0,49.0,3.0,,7.0,3.0,,30.0,9.0,7.0,2.0,4.0,3.0,136.0,39.0,316.0,3.0,3.0,6.0,2.0,6.0,2.0,2.0,20.0,8.0,43.0,63.0,237.0,7.0,15.0,17.0,2.0,2.0,13.0,6.0,36.0,8.0,2.0,,89.0,2.0,325.0,60.0,,2.0,1.0,19.0,,4.0,8.0,7.0,3.0,44.0,2.0,5.0,201.0,21.0,,226.0,567.0,549.0,4.0,,6.0,4.0,21.0,331.0,2.0,2.0,11.0,,9.0,2.0,6.0,29.0,,2.0,2.0,9.0,8.0,2.0,291.0,6.0,5.0,13.0,20.0,5.0,4.0,5.0,239.0,10.0,12.0,5.0,11.0,3.0,,29.0,3.0,,7.0,7.0,9.0,8.0,,6.0,28.0,14.0,19.0,,5.0,3.0,1.0,1.0,5.0,3.0,4.0,122.0,1.0,157.0,19.0,8.0,11.0,,2.0,86.0,1.0,364.0,24.0,7.0,,6.0,2.0,73.0,2.0,5.0,12.0,2.0,16.0,11.0,14.0,51.0,258.0,2.0,3.0,11.0,30.0,6.0,10.0,2.0,393.0,3.0,540.0,13.0,3.0,2.0,13.0,9.0,288.0,22.0,30.0,21.0,7.0,6.0,2.0,1.0,17.0,7.0,114.0,337.0,7.0,228.0,3.0,39.0,7.0,8.0,7.0,,14.0,188.0,95.0,2.0,4.0,9.0,8.0,1.0,12.0,5.0,2.0,7.0,19.0,6.0,331.0,116.0,4.0,,7.0,3.0,124.0,58.0,47.0,48.0,2.0,54.0,610.0,30.0,2.0,,2.0,2.0,1.0,78.0,135.0,,3.0,189.0,425.0,9.0,2.0,2.0,63.0,2.0,14.0,,10.0,2.0,2.0,29.0,33.0,12.0,7.0,2.0,6.0,88.0,3.0,40.0,2.0,31.0,7.0,20.0,,3.0,102.0,2.0,198.0,77.0,18.0,17.0,14.0,7.0,2.0,1.0,25.0,318.0,427.0,7.0,5.0,18.0,3.0,110.0,,64.0,284.0,107.0,2.0,118.0,4.0,,,10.0,152.0,,11.0,4.0,4.0,,2.0,17.0,,7.0,,190.0,6.0,5.0,41.0,44.0,3.0,3.0,3.0,6.0,16.0,,3.0,12.0,2.0,,14.0,2.0,6.0
2016-01-14,8.0,,49.0,2.0,3.0,,5.0,4.0,10.0,1.0,2.0,8.0,7.0,,25.0,,9.0,42.0,2.0,19.0,1051.0,10.0,123.0,7.0,6.0,7.0,51.0,3.0,,7.0,3.0,,32.0,9.0,7.0,2.0,2.0,3.0,138.0,40.0,328.0,3.0,3.0,5.0,2.0,7.0,2.0,2.0,21.0,8.0,44.0,63.0,240.0,7.0,16.0,18.0,2.0,2.0,13.0,6.0,34.0,7.0,2.0,,97.0,2.0,326.0,65.0,,2.0,1.0,23.0,,5.0,9.0,7.0,3.0,48.0,2.0,5.0,201.0,21.0,,229.0,595.0,560.0,4.0,,6.0,4.0,24.0,339.0,2.0,2.0,11.0,,9.0,2.0,7.0,30.0,,2.0,2.0,10.0,8.0,2.0,302.0,6.0,6.0,13.0,20.0,6.0,4.0,5.0,249.0,10.0,13.0,5.0,11.0,3.0,,30.0,3.0,,6.0,7.0,9.0,9.0,,8.0,27.0,17.0,19.0,,5.0,3.0,1.0,1.0,4.0,3.0,4.0,121.0,2.0,157.0,19.0,9.0,12.0,,2.0,86.0,1.0,413.0,23.0,7.0,,7.0,2.0,74.0,2.0,6.0,12.0,2.0,17.0,11.0,16.0,51.0,273.0,2.0,3.0,12.0,31.0,6.0,10.0,2.0,408.0,3.0,556.0,14.0,3.0,3.0,13.0,10.0,297.0,26.0,30.0,22.0,8.0,6.0,2.0,2.0,16.0,7.0,117.0,344.0,6.0,228.0,3.0,42.0,6.0,8.0,7.0,,15.0,199.0,96.0,2.0,4.0,8.0,9.0,1.0,13.0,5.0,2.0,7.0,20.0,6.0,345.0,120.0,3.0,,7.0,3.0,124.0,60.0,48.0,49.0,2.0,55.0,638.0,28.0,2.0,1.0,2.0,2.0,1.0,80.0,138.0,,3.0,192.0,436.0,9.0,2.0,2.0,66.0,2.0,15.0,,10.0,2.0,2.0,32.0,33.0,12.0,7.0,2.0,6.0,89.0,3.0,43.0,2.0,34.0,7.0,20.0,,3.0,104.0,2.0,209.0,79.0,18.0,17.0,14.0,7.0,2.0,2.0,25.0,325.0,449.0,8.0,5.0,16.0,3.0,114.0,,68.0,296.0,112.0,2.0,122.0,5.0,,,10.0,152.0,,12.0,2.0,3.0,,2.0,16.0,,7.0,,199.0,6.0,5.0,43.0,46.0,3.0,4.0,3.0,6.0,20.0,,3.0,12.0,2.0,,14.0,2.0,6.0
2016-01-15,8.0,,48.0,2.0,3.0,,5.0,4.0,10.0,,1.0,8.0,7.0,,25.0,,9.0,40.0,2.0,19.0,1050.0,10.0,123.0,7.0,6.0,8.0,52.0,3.0,,7.0,3.0,,32.0,9.0,6.0,2.0,4.0,4.0,138.0,39.0,327.0,3.0,3.0,6.0,2.0,7.0,3.0,2.0,21.0,8.0,45.0,63.0,240.0,7.0,16.0,17.0,2.0,2.0,14.0,6.0,36.0,8.0,2.0,,96.0,2.0,326.0,61.0,,2.0,1.0,23.0,,5.0,9.0,7.0,3.0,47.0,2.0,5.0,201.0,19.0,,228.0,595.0,563.0,4.0,,6.0,4.0,23.0,338.0,2.0,2.0,11.0,,9.0,2.0,7.0,30.0,,2.0,2.0,10.0,8.0,2.0,302.0,6.0,6.0,13.0,20.0,6.0,4.0,5.0,249.0,10.0,13.0,5.0,11.0,3.0,,29.0,3.0,,6.0,7.0,9.0,9.0,,8.0,27.0,15.0,19.0,,5.0,3.0,1.0,1.0,4.0,3.0,4.0,131.0,2.0,156.0,19.0,9.0,12.0,,2.0,86.0,1.0,410.0,22.0,7.0,,7.0,2.0,74.0,2.0,5.0,12.0,2.0,16.0,11.0,16.0,53.0,265.0,2.0,3.0,12.0,32.0,6.0,10.0,2.0,413.0,3.0,557.0,14.0,3.0,3.0,13.0,11.0,295.0,25.0,35.0,22.0,8.0,6.0,1.0,2.0,17.0,7.0,117.0,348.0,7.0,224.0,3.0,42.0,7.0,8.0,7.0,,14.0,199.0,96.0,2.0,4.0,8.0,9.0,1.0,13.0,5.0,2.0,7.0,21.0,6.0,344.0,119.0,3.0,,7.0,3.0,125.0,62.0,48.0,49.0,2.0,55.0,637.0,30.0,2.0,1.0,2.0,2.0,1.0,80.0,140.0,,3.0,190.0,436.0,9.0,2.0,2.0,64.0,2.0,15.0,1.0,10.0,2.0,2.0,34.0,33.0,12.0,8.0,2.0,6.0,90.0,3.0,43.0,2.0,34.0,6.0,20.0,,3.0,104.0,2.0,206.0,80.0,18.0,17.0,14.0,7.0,3.0,1.0,26.0,325.0,454.0,9.0,5.0,16.0,3.0,115.0,,69.0,297.0,112.0,2.0,122.0,5.0,,,10.0,153.0,,13.0,2.0,3.0,,2.0,17.0,,7.0,,198.0,6.0,5.0,43.0,47.0,3.0,3.0,3.0,6.0,19.0,,3.0,12.0,2.0,,14.0,2.0,6.0
2016-01-16,3.0,,35.0,2.0,2.0,,4.0,4.0,10.0,,1.0,4.0,4.0,,24.0,,6.0,37.0,1.0,20.0,700.0,6.0,87.0,5.0,3.0,4.0,44.0,2.0,,4.0,2.0,,18.0,6.0,6.0,2.0,2.0,2.0,90.0,30.0,208.0,2.0,2.0,5.0,1.0,4.0,3.0,1.0,13.0,7.0,41.0,42.0,207.0,8.0,9.0,13.0,1.0,2.0,7.0,4.0,23.0,4.0,1.0,,64.0,1.0,252.0,44.0,,2.0,1.0,17.0,,4.0,6.0,4.0,1.0,23.0,1.0,4.0,140.0,12.0,,150.0,444.0,451.0,3.0,,5.0,2.0,15.0,223.0,1.0,2.0,9.0,,12.0,1.0,5.0,22.0,,1.0,1.0,6.0,4.0,1.0,184.0,6.0,5.0,10.0,17.0,3.0,4.0,5.0,255.0,8.0,8.0,5.0,6.0,2.0,,19.0,1.0,,4.0,4.0,6.0,5.0,,5.0,20.0,9.0,11.0,,4.0,2.0,2.0,1.0,8.0,2.0,4.0,124.0,1.0,112.0,15.0,6.0,6.0,,1.0,60.0,1.0,282.0,18.0,5.0,,5.0,2.0,56.0,1.0,4.0,13.0,1.0,15.0,16.0,8.0,36.0,223.0,2.0,1.0,11.0,35.0,6.0,4.0,1.0,353.0,2.0,434.0,10.0,3.0,1.0,6.0,5.0,157.0,20.0,36.0,13.0,6.0,4.0,2.0,2.0,10.0,3.0,84.0,351.0,5.0,176.0,2.0,28.0,4.0,5.0,4.0,,14.0,193.0,63.0,2.0,2.0,6.0,5.0,1.0,7.0,5.0,1.0,5.0,12.0,4.0,216.0,97.0,9.0,,7.0,2.0,89.0,65.0,28.0,35.0,2.0,40.0,466.0,17.0,2.0,,2.0,2.0,1.0,70.0,112.0,,2.0,154.0,381.0,6.0,1.0,1.0,52.0,1.0,10.0,,7.0,2.0,2.0,34.0,29.0,10.0,5.0,2.0,4.0,63.0,2.0,24.0,1.0,26.0,4.0,16.0,1.0,2.0,116.0,2.0,149.0,56.0,13.0,14.0,9.0,8.0,3.0,1.0,17.0,266.0,334.0,5.0,4.0,10.0,3.0,72.0,,84.0,210.0,69.0,2.0,85.0,4.0,,,9.0,105.0,,18.0,5.0,5.0,,2.0,12.0,,5.0,,178.0,3.0,5.0,26.0,46.0,3.0,5.0,2.0,5.0,11.0,,1.0,8.0,2.0,,6.0,2.0,5.0
2016-01-17,4.0,,42.0,2.0,1.0,,4.0,4.0,10.0,1.0,2.0,7.0,4.0,,22.0,,7.0,38.0,1.0,22.0,790.0,7.0,108.0,5.0,4.0,6.0,43.0,2.0,,5.0,2.0,,24.0,10.0,6.0,2.0,4.0,1.0,107.0,34.0,242.0,3.0,2.0,6.0,1.0,5.0,2.0,2.0,17.0,7.0,36.0,51.0,202.0,8.0,10.0,12.0,1.0,2.0,6.0,4.0,30.0,8.0,2.0,,75.0,2.0,283.0,51.0,,2.0,1.0,17.0,,4.0,6.0,5.0,1.0,28.0,2.0,4.0,173.0,15.0,,185.0,520.0,509.0,2.0,,5.0,2.0,16.0,235.0,1.0,2.0,8.0,,11.0,1.0,5.0,25.0,,2.0,1.0,9.0,5.0,1.0,228.0,4.0,6.0,8.0,20.0,3.0,4.0,4.0,238.0,8.0,9.0,4.0,8.0,3.0,,25.0,2.0,,5.0,4.0,7.0,10.0,,5.0,21.0,10.0,13.0,,4.0,2.0,1.0,1.0,9.0,2.0,3.0,122.0,2.0,132.0,16.0,7.0,7.0,,1.0,73.0,1.0,351.0,23.0,6.0,,7.0,1.0,64.0,1.0,7.0,11.0,1.0,14.0,11.0,11.0,42.0,256.0,2.0,2.0,11.0,32.0,6.0,6.0,1.0,387.0,3.0,482.0,12.0,3.0,2.0,11.0,6.0,192.0,25.0,32.0,18.0,7.0,5.0,1.0,3.0,11.0,4.0,94.0,333.0,4.0,190.0,2.0,32.0,5.0,8.0,5.0,,13.0,197.0,78.0,2.0,3.0,5.0,6.0,1.0,10.0,4.0,1.0,7.0,15.0,5.0,259.0,108.0,6.0,,7.0,2.0,106.0,61.0,37.0,40.0,2.0,48.0,557.0,23.0,2.0,1.0,2.0,2.0,1.0,72.0,123.0,,2.0,178.0,406.0,7.0,1.0,1.0,52.0,1.0,12.0,,8.0,2.0,2.0,33.0,29.0,11.0,4.0,2.0,5.0,69.0,3.0,31.0,2.0,31.0,5.0,18.0,,3.0,97.0,2.0,185.0,70.0,13.0,16.0,9.0,7.0,2.0,2.0,25.0,296.0,402.0,7.0,5.0,12.0,3.0,91.0,,77.0,244.0,90.0,2.0,98.0,5.0,,,9.0,124.0,,15.0,3.0,3.0,,2.0,14.0,,6.0,,185.0,4.0,5.0,37.0,46.0,3.0,2.0,2.0,4.0,15.0,,1.0,10.0,2.0,,7.0,2.0,6.0
2016-01-18,7.0,,49.0,2.0,3.0,,5.0,4.0,10.0,,1.0,7.0,7.0,,24.0,,9.0,40.0,2.0,19.0,1039.0,10.0,123.0,7.0,6.0,7.0,51.0,3.0,,7.0,3.0,,32.0,9.0,6.0,2.0,2.0,3.0,137.0,39.0,316.0,3.0,3.0,6.0,2.0,7.0,3.0,2.0,21.0,9.0,45.0,62.0,240.0,8.0,16.0,17.0,2.0,2.0,13.0,5.0,34.0,8.0,2.0,,98.0,2.0,285.0,63.0,,2.0,1.0,23.0,,4.0,9.0,7.0,3.0,48.0,2.0,5.0,201.0,20.0,,219.0,588.0,560.0,4.0,,6.0,4.0,24.0,329.0,2.0,2.0,11.0,,9.0,2.0,7.0,31.0,,2.0,2.0,10.0,9.0,2.0,295.0,6.0,6.0,14.0,20.0,6.0,4.0,5.0,248.0,10.0,12.0,5.0,11.0,3.0,,30.0,3.0,,6.0,7.0,9.0,8.0,,8.0,26.0,17.0,20.0,,5.0,3.0,1.0,1.0,4.0,3.0,4.0,122.0,2.0,157.0,19.0,7.0,12.0,,2.0,84.0,1.0,410.0,21.0,7.0,,7.0,2.0,76.0,2.0,6.0,12.0,2.0,16.0,11.0,16.0,53.0,268.0,2.0,3.0,12.0,31.0,6.0,10.0,2.0,404.0,2.0,550.0,14.0,3.0,3.0,13.0,10.0,278.0,26.0,30.0,22.0,8.0,6.0,1.0,2.0,18.0,7.0,117.0,343.0,6.0,227.0,3.0,41.0,7.0,8.0,7.0,,14.0,197.0,96.0,2.0,4.0,8.0,9.0,1.0,13.0,5.0,2.0,7.0,21.0,6.0,339.0,120.0,3.0,,7.0,3.0,123.0,58.0,48.0,49.0,2.0,55.0,632.0,30.0,2.0,1.0,2.0,2.0,1.0,80.0,138.0,,3.0,189.0,434.0,9.0,2.0,2.0,64.0,2.0,15.0,1.0,10.0,2.0,2.0,32.0,32.0,12.0,7.0,2.0,6.0,84.0,3.0,40.0,2.0,34.0,7.0,21.0,,3.0,103.0,2.0,208.0,79.0,18.0,17.0,14.0,7.0,3.0,2.0,27.0,321.0,440.0,9.0,5.0,16.0,3.0,114.0,,72.0,296.0,113.0,2.0,122.0,5.0,,,10.0,151.0,,12.0,3.0,3.0,,2.0,15.0,,7.0,,197.0,6.0,5.0,42.0,46.0,3.0,6.0,3.0,6.0,19.0,,3.0,12.0,2.0,,14.0,2.0,6.0
2016-01-19,6.0,,49.0,2.0,3.0,,4.0,4.0,10.0,,2.0,6.0,7.0,,25.0,,8.0,38.0,2.0,17.0,1009.0,9.0,117.0,7.0,6.0,8.0,48.0,3.0,,5.0,3.0,,31.0,9.0,7.0,2.0,3.0,3.0,134.0,38.0,318.0,2.0,3.0,6.0,2.0,6.0,3.0,2.0,20.0,8.0,42.0,63.0,232.0,6.0,15.0,17.0,2.0,2.0,13.0,6.0,35.0,8.0,2.0,,91.0,2.0,281.0,62.0,,2.0,1.0,20.0,,4.0,8.0,7.0,3.0,43.0,2.0,5.0,201.0,20.0,,221.0,564.0,539.0,4.0,,5.0,3.0,22.0,329.0,1.0,2.0,11.0,,8.0,2.0,6.0,31.0,,2.0,2.0,10.0,8.0,2.0,289.0,6.0,5.0,13.0,19.0,5.0,4.0,5.0,234.0,10.0,12.0,5.0,11.0,3.0,,29.0,3.0,,6.0,7.0,9.0,8.0,,6.0,28.0,14.0,19.0,,5.0,3.0,1.0,1.0,4.0,3.0,4.0,116.0,1.0,157.0,18.0,8.0,11.0,,2.0,85.0,1.0,363.0,21.0,7.0,,6.0,2.0,73.0,2.0,6.0,12.0,2.0,17.0,11.0,13.0,51.0,253.0,2.0,2.0,12.0,28.0,6.0,10.0,2.0,391.0,3.0,528.0,14.0,3.0,3.0,13.0,9.0,287.0,24.0,29.0,21.0,8.0,5.0,2.0,1.0,17.0,7.0,114.0,336.0,5.0,228.0,3.0,39.0,7.0,8.0,7.0,,13.0,185.0,94.0,2.0,4.0,9.0,8.0,1.0,12.0,5.0,2.0,7.0,19.0,6.0,324.0,115.0,2.0,,7.0,3.0,124.0,58.0,48.0,47.0,2.0,54.0,609.0,29.0,2.0,,2.0,2.0,1.0,77.0,131.0,,3.0,184.0,390.0,8.0,2.0,2.0,63.0,2.0,15.0,,10.0,2.0,2.0,28.0,32.0,12.0,8.0,2.0,6.0,82.0,3.0,38.0,2.0,31.0,7.0,20.0,,3.0,103.0,2.0,194.0,79.0,18.0,15.0,14.0,7.0,3.0,2.0,25.0,312.0,424.0,8.0,5.0,16.0,3.0,110.0,,67.0,283.0,108.0,2.0,117.0,4.0,,,10.0,147.0,,12.0,2.0,3.0,,2.0,15.0,,7.0,,191.0,6.0,5.0,41.0,43.0,3.0,5.0,2.0,6.0,16.0,,3.0,11.0,2.0,,14.0,2.0,5.0
2016-01-20,6.0,,48.0,2.0,3.0,,5.0,4.0,10.0,,1.0,6.0,7.0,,25.0,,9.0,37.0,2.0,18.0,1019.0,10.0,121.0,7.0,6.0,8.0,47.0,3.0,,7.0,3.0,,30.0,9.0,6.0,2.0,4.0,3.0,135.0,38.0,314.0,3.0,3.0,6.0,2.0,6.0,2.0,2.0,21.0,8.0,44.0,63.0,235.0,7.0,15.0,17.0,2.0,2.0,13.0,6.0,35.0,8.0,2.0,,90.0,2.0,325.0,60.0,,2.0,1.0,19.0,,4.0,7.0,7.0,3.0,43.0,2.0,5.0,201.0,19.0,,229.0,568.0,546.0,4.0,,6.0,4.0,22.0,331.0,2.0,2.0,11.0,,9.0,2.0,6.0,29.0,,2.0,2.0,10.0,8.0,2.0,290.0,6.0,5.0,13.0,20.0,5.0,4.0,5.0,238.0,10.0,12.0,5.0,11.0,3.0,,28.0,3.0,,7.0,7.0,9.0,8.0,,6.0,27.0,17.0,20.0,,5.0,3.0,1.0,1.0,5.0,3.0,4.0,121.0,1.0,157.0,19.0,8.0,11.0,,2.0,85.0,1.0,369.0,25.0,7.0,,6.0,2.0,74.0,2.0,5.0,12.0,2.0,16.0,11.0,14.0,51.0,255.0,2.0,3.0,12.0,30.0,6.0,10.0,2.0,394.0,3.0,539.0,13.0,3.0,3.0,13.0,9.0,288.0,23.0,30.0,21.0,7.0,6.0,2.0,1.0,18.0,7.0,115.0,340.0,7.0,227.0,3.0,39.0,7.0,8.0,7.0,,13.0,188.0,94.0,2.0,4.0,9.0,8.0,1.0,12.0,5.0,2.0,7.0,19.0,6.0,331.0,115.0,4.0,,7.0,3.0,124.0,58.0,48.0,48.0,2.0,54.0,604.0,30.0,2.0,,2.0,2.0,1.0,78.0,135.0,,3.0,186.0,425.0,9.0,2.0,2.0,64.0,2.0,14.0,,10.0,2.0,2.0,29.0,33.0,12.0,8.0,2.0,6.0,87.0,3.0,40.0,2.0,31.0,7.0,20.0,,3.0,102.0,2.0,198.0,77.0,18.0,17.0,14.0,7.0,2.0,1.0,23.0,316.0,428.0,7.0,5.0,18.0,3.0,110.0,,64.0,284.0,108.0,2.0,118.0,4.0,,,10.0,151.0,,11.0,4.0,4.0,,2.0,17.0,,7.0,,189.0,6.0,5.0,41.0,45.0,3.0,4.0,3.0,6.0,16.0,,3.0,12.0,2.0,,14.0,2.0,6.0
2016-01-21,8.0,,49.0,2.0,3.0,,5.0,4.0,10.0,1.0,2.0,8.0,7.0,,25.0,,9.0,42.0,2.0,19.0,1053.0,10.0,122.0,7.0,6.0,8.0,51.0,3.0,,7.0,3.0,,32.0,9.0,7.0,2.0,2.0,3.0,139.0,39.0,327.0,3.0,3.0,5.0,2.0,7.0,2.0,2.0,21.0,8.0,44.0,63.0,238.0,7.0,16.0,17.0,2.0,2.0,13.0,6.0,37.0,7.0,2.0,,96.0,2.0,326.0,65.0,,2.0,1.0,23.0,,5.0,9.0,7.0,3.0,48.0,2.0,5.0,201.0,19.0,,229.0,596.0,561.0,4.0,,6.0,4.0,24.0,340.0,2.0,2.0,11.0,,9.0,2.0,7.0,31.0,,2.0,2.0,10.0,8.0,2.0,302.0,6.0,6.0,13.0,20.0,6.0,4.0,5.0,248.0,10.0,13.0,5.0,11.0,3.0,,30.0,3.0,,6.0,7.0,9.0,8.0,,8.0,27.0,15.0,19.0,,5.0,3.0,1.0,1.0,4.0,3.0,4.0,121.0,2.0,157.0,19.0,9.0,12.0,,2.0,86.0,1.0,415.0,23.0,7.0,,7.0,2.0,75.0,2.0,6.0,12.0,2.0,17.0,11.0,16.0,52.0,272.0,2.0,3.0,11.0,31.0,6.0,10.0,2.0,408.0,3.0,557.0,14.0,3.0,3.0,13.0,10.0,298.0,26.0,30.0,22.0,8.0,6.0,2.0,2.0,16.0,7.0,117.0,344.0,6.0,227.0,3.0,41.0,6.0,8.0,7.0,,14.0,199.0,95.0,2.0,4.0,8.0,9.0,1.0,13.0,5.0,2.0,7.0,20.0,6.0,345.0,120.0,3.0,,7.0,3.0,124.0,60.0,48.0,49.0,2.0,55.0,635.0,29.0,2.0,1.0,2.0,2.0,1.0,80.0,137.0,,3.0,189.0,436.0,9.0,2.0,2.0,66.0,2.0,15.0,,10.0,2.0,2.0,32.0,33.0,12.0,7.0,2.0,6.0,87.0,3.0,43.0,2.0,34.0,6.0,20.0,,3.0,104.0,2.0,209.0,78.0,18.0,17.0,14.0,7.0,2.0,2.0,26.0,326.0,449.0,8.0,5.0,16.0,3.0,114.0,,67.0,297.0,113.0,2.0,122.0,5.0,,,10.0,153.0,,12.0,2.0,3.0,,2.0,17.0,,7.0,,197.0,6.0,5.0,43.0,46.0,3.0,3.0,3.0,6.0,20.0,,3.0,12.0,2.0,,14.0,2.0,6.0
2016-01-22,8.0,,48.0,2.0,3.0,,5.0,4.0,10.0,,1.0,8.0,7.0,,25.0,,9.0,40.0,2.0,19.0,1048.0,10.0,124.0,7.0,6.0,8.0,50.0,3.0,,7.0,3.0,,32.0,9.0,6.0,2.0,4.0,4.0,138.0,39.0,328.0,3.0,3.0,6.0,2.0,7.0,3.0,2.0,21.0,8.0,45.0,63.0,238.0,7.0,16.0,17.0,2.0,2.0,13.0,6.0,36.0,8.0,2.0,,96.0,2.0,326.0,62.0,,2.0,1.0,23.0,,5.0,9.0,7.0,3.0,47.0,2.0,5.0,201.0,19.0,,228.0,595.0,563.0,4.0,,6.0,4.0,23.0,337.0,2.0,2.0,11.0,,9.0,2.0,7.0,30.0,,2.0,2.0,10.0,8.0,2.0,302.0,6.0,6.0,13.0,20.0,6.0,4.0,5.0,249.0,10.0,12.0,5.0,11.0,3.0,,28.0,4.0,,6.0,7.0,9.0,9.0,,8.0,27.0,17.0,18.0,,5.0,3.0,1.0,1.0,4.0,3.0,4.0,131.0,2.0,157.0,19.0,9.0,12.0,,2.0,86.0,1.0,412.0,22.0,7.0,,7.0,2.0,73.0,2.0,5.0,12.0,2.0,16.0,11.0,16.0,53.0,266.0,2.0,3.0,12.0,32.0,6.0,11.0,2.0,413.0,3.0,558.0,14.0,3.0,3.0,13.0,10.0,297.0,25.0,35.0,22.0,8.0,6.0,1.0,2.0,16.0,7.0,118.0,348.0,7.0,221.0,3.0,42.0,7.0,8.0,7.0,,14.0,199.0,96.0,2.0,4.0,8.0,9.0,1.0,13.0,5.0,2.0,7.0,21.0,6.0,343.0,119.0,3.0,,7.0,3.0,125.0,62.0,47.0,49.0,2.0,55.0,633.0,30.0,2.0,1.0,2.0,2.0,1.0,80.0,140.0,,3.0,190.0,436.0,9.0,2.0,2.0,65.0,2.0,15.0,1.0,10.0,2.0,2.0,33.0,33.0,12.0,8.0,2.0,6.0,89.0,3.0,43.0,2.0,34.0,6.0,20.0,,3.0,104.0,2.0,205.0,81.0,18.0,17.0,14.0,7.0,3.0,2.0,27.0,323.0,451.0,9.0,5.0,16.0,3.0,115.0,,67.0,297.0,111.0,2.0,122.0,5.0,,,10.0,151.0,,13.0,2.0,3.0,,2.0,17.0,,7.0,,198.0,6.0,5.0,43.0,47.0,3.0,3.0,3.0,6.0,19.0,,3.0,12.0,2.0,,13.0,2.0,6.0
2016-01-23,3.0,,35.0,2.0,2.0,,4.0,4.0,10.0,,1.0,4.0,4.0,,24.0,,6.0,37.0,1.0,21.0,739.0,7.0,87.0,5.0,3.0,4.0,44.0,2.0,,4.0,2.0,,19.0,7.0,6.0,2.0,2.0,2.0,92.0,31.0,214.0,2.0,2.0,5.0,1.0,4.0,3.0,1.0,13.0,8.0,42.0,43.0,205.0,9.0,8.0,13.0,1.0,2.0,7.0,4.0,24.0,5.0,1.0,,64.0,1.0,254.0,40.0,,2.0,1.0,17.0,,4.0,6.0,4.0,2.0,23.0,1.0,4.0,140.0,12.0,,155.0,444.0,452.0,3.0,,5.0,2.0,15.0,236.0,1.0,2.0,9.0,,12.0,1.0,5.0,22.0,,1.0,1.0,7.0,5.0,1.0,184.0,6.0,5.0,10.0,17.0,4.0,4.0,5.0,257.0,8.0,9.0,5.0,6.0,2.0,,22.0,2.0,,3.0,4.0,7.0,6.0,,5.0,19.0,10.0,11.0,,5.0,2.0,2.0,1.0,8.0,2.0,4.0,123.0,1.0,110.0,15.0,6.0,6.0,,1.0,59.0,1.0,288.0,17.0,5.0,,5.0,2.0,59.0,1.0,4.0,13.0,2.0,15.0,17.0,9.0,35.0,225.0,2.0,1.0,11.0,35.0,6.0,4.0,1.0,355.0,2.0,441.0,10.0,3.0,1.0,8.0,6.0,165.0,21.0,36.0,13.0,6.0,4.0,1.0,2.0,11.0,4.0,83.0,354.0,6.0,176.0,2.0,29.0,5.0,5.0,4.0,,15.0,194.0,63.0,2.0,2.0,6.0,5.0,1.0,7.0,4.0,1.0,5.0,12.0,4.0,221.0,96.0,10.0,,7.0,2.0,89.0,64.0,28.0,36.0,2.0,40.0,467.0,19.0,1.0,,2.0,2.0,1.0,73.0,111.0,,2.0,156.0,383.0,5.0,1.0,1.0,51.0,1.0,11.0,,8.0,2.0,2.0,34.0,30.0,11.0,5.0,2.0,4.0,63.0,2.0,24.0,1.0,26.0,4.0,16.0,1.0,2.0,119.0,2.0,150.0,57.0,14.0,14.0,9.0,8.0,3.0,1.0,17.0,269.0,338.0,5.0,4.0,11.0,3.0,72.0,,82.0,223.0,72.0,2.0,85.0,4.0,,,10.0,103.0,,18.0,5.0,5.0,,2.0,13.0,,5.0,,179.0,3.0,5.0,27.0,47.0,2.0,7.0,2.0,5.0,11.0,,2.0,8.0,2.0,,6.0,2.0,5.0
2016-01-24,6.0,,44.0,2.0,2.0,,5.0,4.0,10.0,1.0,2.0,7.0,6.0,,24.0,,7.0,38.0,1.0,22.0,962.0,8.0,112.0,6.0,4.0,7.0,45.0,2.0,,5.0,3.0,,28.0,10.0,6.0,2.0,4.0,3.0,116.0,38.0,268.0,3.0,3.0,6.0,1.0,5.0,2.0,2.0,19.0,7.0,40.0,53.0,210.0,10.0,14.0,15.0,1.0,2.0,10.0,5.0,33.0,9.0,2.0,,85.0,2.0,284.0,54.0,,2.0,1.0,19.0,,5.0,6.0,6.0,3.0,40.0,2.0,5.0,176.0,17.0,,205.0,550.0,522.0,4.0,,7.0,2.0,22.0,312.0,1.0,2.0,9.0,,11.0,1.0,7.0,24.0,,2.0,1.0,9.0,7.0,2.0,248.0,6.0,6.0,9.0,21.0,5.0,4.0,5.0,244.0,9.0,11.0,4.0,11.0,3.0,,28.0,4.0,,7.0,7.0,9.0,9.0,,7.0,21.0,13.0,16.0,,5.0,3.0,1.0,1.0,8.0,2.0,3.0,124.0,2.0,133.0,19.0,7.0,10.0,,1.0,79.0,1.0,368.0,24.0,7.0,,7.0,1.0,71.0,1.0,6.0,11.0,2.0,14.0,12.0,12.0,47.0,274.0,2.0,2.0,11.0,32.0,6.0,7.0,1.0,396.0,3.0,512.0,13.0,3.0,2.0,12.0,7.0,232.0,26.0,32.0,19.0,8.0,5.0,1.0,2.0,13.0,7.0,102.0,339.0,5.0,193.0,2.0,35.0,6.0,8.0,6.0,,14.0,200.0,82.0,2.0,4.0,7.0,8.0,1.0,11.0,4.0,2.0,7.0,19.0,6.0,310.0,111.0,5.0,,8.0,3.0,108.0,61.0,37.0,46.0,2.0,49.0,584.0,29.0,2.0,1.0,2.0,2.0,1.0,73.0,129.0,,3.0,180.0,415.0,6.0,1.0,2.0,56.0,1.0,14.0,,10.0,2.0,2.0,34.0,32.0,11.0,7.0,2.0,6.0,79.0,3.0,37.0,2.0,32.0,5.0,18.0,,3.0,103.0,2.0,189.0,73.0,17.0,17.0,12.0,7.0,2.0,2.0,23.0,312.0,422.0,8.0,5.0,14.0,3.0,97.0,,76.0,292.0,97.0,2.0,104.0,5.0,,,10.0,134.0,,15.0,3.0,3.0,,5.0,14.0,,7.0,,190.0,5.0,5.0,39.0,46.0,3.0,4.0,3.0,5.0,17.0,,3.0,12.0,2.0,,9.0,2.0,6.0
2016-01-25,8.0,,49.0,2.0,3.0,,5.0,4.0,10.0,,1.0,8.0,7.0,,24.0,,9.0,40.0,2.0,19.0,1047.0,10.0,122.0,7.0,6.0,8.0,49.0,3.0,,7.0,3.0,,32.0,9.0,7.0,2.0,2.0,3.0,138.0,39.0,328.0,3.0,3.0,6.0,2.0,7.0,3.0,2.0,21.0,8.0,44.0,63.0,239.0,7.0,16.0,18.0,2.0,2.0,14.0,6.0,37.0,8.0,2.0,,97.0,2.0,287.0,64.0,,2.0,1.0,23.0,,5.0,8.0,7.0,3.0,47.0,2.0,5.0,201.0,21.0,,228.0,591.0,559.0,4.0,,6.0,4.0,23.0,336.0,2.0,2.0,11.0,,9.0,2.0,7.0,31.0,,2.0,2.0,10.0,8.0,2.0,301.0,6.0,6.0,13.0,20.0,6.0,4.0,5.0,248.0,10.0,13.0,5.0,11.0,3.0,,30.0,2.0,,6.0,7.0,9.0,8.0,,8.0,27.0,15.0,19.0,,5.0,3.0,1.0,1.0,4.0,3.0,4.0,121.0,2.0,156.0,19.0,8.0,12.0,,2.0,84.0,1.0,406.0,23.0,7.0,,7.0,2.0,76.0,2.0,6.0,12.0,2.0,16.0,11.0,16.0,51.0,268.0,2.0,3.0,12.0,31.0,6.0,9.0,2.0,402.0,3.0,552.0,14.0,3.0,3.0,13.0,12.0,297.0,26.0,30.0,22.0,8.0,6.0,2.0,2.0,17.0,7.0,116.0,344.0,5.0,226.0,3.0,41.0,7.0,8.0,7.0,,14.0,196.0,96.0,2.0,4.0,8.0,9.0,1.0,13.0,5.0,2.0,7.0,21.0,6.0,341.0,119.0,3.0,,7.0,3.0,123.0,58.0,48.0,49.0,2.0,55.0,638.0,29.0,2.0,1.0,2.0,2.0,1.0,80.0,139.0,,3.0,189.0,435.0,9.0,2.0,2.0,64.0,2.0,15.0,1.0,10.0,2.0,2.0,32.0,32.0,12.0,8.0,2.0,6.0,85.0,3.0,41.0,2.0,33.0,7.0,20.0,,3.0,103.0,2.0,207.0,78.0,18.0,17.0,15.0,7.0,3.0,2.0,25.0,324.0,447.0,8.0,5.0,16.0,3.0,115.0,,69.0,296.0,112.0,2.0,121.0,5.0,,,10.0,150.0,,12.0,3.0,3.0,,4.0,15.0,,7.0,,197.0,6.0,5.0,43.0,46.0,3.0,3.0,3.0,6.0,20.0,,3.0,12.0,2.0,,14.0,2.0,6.0
2016-01-26,6.0,,47.0,2.0,3.0,,4.0,4.0,10.0,,2.0,6.0,7.0,,25.0,,8.0,38.0,2.0,17.0,1004.0,9.0,116.0,7.0,6.0,8.0,49.0,3.0,,5.0,3.0,,31.0,9.0,7.0,2.0,3.0,3.0,136.0,38.0,318.0,2.0,3.0,6.0,2.0,6.0,3.0,2.0,20.0,8.0,42.0,63.0,234.0,6.0,15.0,17.0,2.0,2.0,13.0,6.0,34.0,8.0,2.0,,88.0,2.0,282.0,59.0,,2.0,1.0,20.0,,4.0,8.0,7.0,3.0,43.0,2.0,5.0,201.0,21.0,,221.0,563.0,540.0,4.0,,5.0,3.0,22.0,326.0,1.0,2.0,11.0,,8.0,2.0,6.0,30.0,,2.0,2.0,10.0,8.0,2.0,288.0,6.0,5.0,13.0,19.0,5.0,4.0,5.0,235.0,10.0,12.0,5.0,11.0,3.0,,29.0,3.0,,6.0,7.0,9.0,8.0,,6.0,28.0,17.0,19.0,,5.0,3.0,1.0,1.0,4.0,3.0,4.0,115.0,1.0,155.0,18.0,8.0,11.0,,2.0,84.0,1.0,357.0,21.0,7.0,,6.0,2.0,73.0,2.0,6.0,12.0,2.0,17.0,11.0,13.0,50.0,253.0,2.0,2.0,12.0,28.0,6.0,10.0,2.0,390.0,3.0,525.0,14.0,3.0,3.0,13.0,9.0,287.0,23.0,29.0,21.0,9.0,5.0,2.0,1.0,17.0,7.0,113.0,335.0,7.0,225.0,3.0,39.0,7.0,8.0,7.0,,13.0,185.0,94.0,2.0,4.0,9.0,8.0,1.0,12.0,5.0,2.0,7.0,19.0,6.0,324.0,114.0,2.0,,7.0,3.0,124.0,58.0,47.0,47.0,2.0,54.0,613.0,28.0,2.0,,2.0,2.0,1.0,77.0,131.0,,3.0,182.0,389.0,8.0,2.0,2.0,62.0,2.0,15.0,,10.0,2.0,2.0,28.0,32.0,12.0,8.0,2.0,6.0,85.0,3.0,39.0,2.0,31.0,7.0,20.0,,3.0,103.0,2.0,194.0,79.0,18.0,15.0,14.0,7.0,3.0,2.0,24.0,309.0,423.0,8.0,5.0,16.0,3.0,110.0,,65.0,283.0,107.0,2.0,117.0,4.0,,,10.0,145.0,,12.0,2.0,3.0,,2.0,16.0,,7.0,,192.0,6.0,5.0,41.0,43.0,3.0,3.0,2.0,6.0,16.0,,3.0,11.0,2.0,,15.0,2.0,5.0
2016-01-27,6.0,,47.0,2.0,3.0,,5.0,4.0,10.0,,1.0,6.0,7.0,,25.0,,9.0,37.0,2.0,18.0,1016.0,10.0,119.0,7.0,6.0,8.0,48.0,3.0,,7.0,3.0,,30.0,9.0,7.0,2.0,4.0,3.0,136.0,37.0,314.0,3.0,3.0,6.0,2.0,6.0,2.0,2.0,20.0,8.0,44.0,63.0,237.0,7.0,15.0,17.0,2.0,2.0,13.0,6.0,37.0,8.0,2.0,,88.0,2.0,325.0,62.0,,2.0,1.0,19.0,,4.0,8.0,7.0,3.0,43.0,2.0,5.0,201.0,20.0,,226.0,568.0,548.0,4.0,,6.0,4.0,21.0,331.0,2.0,2.0,11.0,,9.0,2.0,6.0,28.0,,2.0,2.0,10.0,8.0,2.0,291.0,6.0,5.0,13.0,20.0,5.0,4.0,5.0,239.0,10.0,12.0,5.0,11.0,3.0,,28.0,3.0,,7.0,7.0,9.0,8.0,,6.0,28.0,14.0,19.0,,5.0,3.0,1.0,1.0,5.0,3.0,4.0,121.0,1.0,155.0,19.0,8.0,11.0,,2.0,84.0,1.0,361.0,24.0,7.0,,6.0,2.0,73.0,2.0,5.0,12.0,2.0,16.0,11.0,14.0,50.0,254.0,2.0,3.0,11.0,30.0,6.0,10.0,2.0,393.0,3.0,536.0,13.0,3.0,2.0,13.0,9.0,288.0,22.0,30.0,21.0,8.0,6.0,2.0,1.0,17.0,7.0,113.0,339.0,7.0,225.0,3.0,39.0,7.0,8.0,7.0,,13.0,188.0,95.0,2.0,4.0,9.0,8.0,1.0,12.0,5.0,2.0,7.0,19.0,6.0,330.0,115.0,4.0,,7.0,3.0,124.0,58.0,47.0,48.0,2.0,54.0,608.0,29.0,2.0,,2.0,2.0,1.0,78.0,135.0,,3.0,187.0,424.0,9.0,2.0,2.0,63.0,2.0,14.0,,10.0,2.0,2.0,29.0,33.0,12.0,6.0,2.0,6.0,87.0,3.0,40.0,2.0,31.0,7.0,20.0,,3.0,102.0,2.0,198.0,78.0,18.0,17.0,14.0,7.0,2.0,1.0,25.0,316.0,428.0,7.0,5.0,17.0,3.0,110.0,,64.0,284.0,107.0,2.0,118.0,4.0,,,10.0,152.0,,11.0,4.0,4.0,,2.0,17.0,,7.0,,190.0,6.0,5.0,41.0,45.0,3.0,5.0,3.0,6.0,16.0,,3.0,12.0,2.0,,14.0,2.0,6.0
2016-01-28,8.0,,49.0,2.0,3.0,,5.0,4.0,10.0,1.0,2.0,8.0,7.0,,25.0,,9.0,42.0,2.0,19.0,1049.0,10.0,121.0,7.0,6.0,8.0,50.0,3.0,,7.0,3.0,,32.0,9.0,7.0,2.0,2.0,3.0,138.0,39.0,326.0,3.0,3.0,5.0,2.0,7.0,2.0,2.0,21.0,8.0,47.0,63.0,240.0,7.0,16.0,17.0,2.0,2.0,13.0,6.0,35.0,7.0,2.0,,97.0,2.0,326.0,64.0,,2.0,1.0,23.0,,5.0,9.0,7.0,3.0,49.0,2.0,5.0,201.0,19.0,,229.0,599.0,560.0,4.0,,6.0,4.0,24.0,342.0,2.0,2.0,11.0,,9.0,2.0,7.0,31.0,,2.0,2.0,10.0,8.0,2.0,301.0,6.0,6.0,13.0,20.0,6.0,4.0,5.0,249.0,10.0,13.0,5.0,11.0,3.0,,30.0,3.0,,6.0,7.0,9.0,8.0,,8.0,27.0,17.0,20.0,,5.0,3.0,1.0,1.0,4.0,3.0,4.0,121.0,2.0,154.0,19.0,9.0,12.0,,2.0,85.0,1.0,411.0,22.0,7.0,,7.0,2.0,75.0,2.0,6.0,12.0,2.0,17.0,11.0,15.0,51.0,272.0,2.0,3.0,12.0,31.0,6.0,10.0,2.0,408.0,3.0,553.0,14.0,3.0,3.0,13.0,10.0,298.0,26.0,30.0,22.0,8.0,6.0,2.0,2.0,16.0,7.0,116.0,345.0,6.0,225.0,3.0,41.0,6.0,8.0,7.0,,14.0,199.0,95.0,2.0,4.0,8.0,9.0,1.0,13.0,5.0,2.0,7.0,20.0,6.0,344.0,121.0,3.0,,7.0,3.0,124.0,60.0,47.0,49.0,2.0,55.0,637.0,30.0,2.0,1.0,2.0,2.0,1.0,80.0,138.0,,3.0,190.0,434.0,9.0,2.0,2.0,66.0,2.0,15.0,,10.0,2.0,2.0,32.0,33.0,12.0,7.0,2.0,6.0,89.0,3.0,43.0,2.0,34.0,6.0,20.0,,3.0,104.0,2.0,210.0,78.0,17.0,17.0,14.0,7.0,2.0,2.0,24.0,325.0,448.0,8.0,5.0,16.0,3.0,114.0,,67.0,297.0,112.0,2.0,122.0,5.0,,,10.0,152.0,,12.0,2.0,3.0,,2.0,17.0,,7.0,,198.0,6.0,5.0,43.0,46.0,3.0,3.0,3.0,6.0,20.0,,3.0,12.0,2.0,,14.0,2.0,6.0
2016-01-29,8.0,,49.0,2.0,3.0,,5.0,4.0,10.0,,1.0,8.0,7.0,,25.0,,9.0,40.0,2.0,19.0,1048.0,10.0,123.0,7.0,6.0,8.0,51.0,3.0,,7.0,3.0,,32.0,9.0,6.0,2.0,4.0,4.0,138.0,39.0,328.0,3.0,3.0,6.0,2.0,7.0,3.0,2.0,21.0,8.0,45.0,63.0,237.0,7.0,16.0,17.0,2.0,2.0,13.0,6.0,36.0,8.0,2.0,,97.0,2.0,326.0,61.0,,2.0,1.0,23.0,,5.0,8.0,7.0,3.0,47.0,2.0,5.0,201.0,21.0,,229.0,598.0,563.0,4.0,,6.0,4.0,23.0,339.0,2.0,2.0,11.0,,9.0,2.0,7.0,30.0,,2.0,2.0,10.0,8.0,2.0,302.0,6.0,6.0,13.0,20.0,6.0,4.0,5.0,249.0,10.0,13.0,5.0,11.0,3.0,,28.0,4.0,,6.0,7.0,8.0,8.0,,8.0,27.0,15.0,19.0,,5.0,3.0,1.0,1.0,4.0,3.0,4.0,131.0,2.0,156.0,19.0,9.0,12.0,,2.0,85.0,1.0,408.0,22.0,7.0,,7.0,2.0,75.0,2.0,5.0,12.0,2.0,16.0,11.0,15.0,52.0,266.0,2.0,3.0,12.0,32.0,6.0,11.0,2.0,413.0,3.0,558.0,14.0,3.0,3.0,13.0,10.0,295.0,25.0,35.0,22.0,8.0,6.0,1.0,2.0,16.0,7.0,118.0,348.0,7.0,222.0,3.0,41.0,6.0,8.0,7.0,,14.0,199.0,95.0,2.0,4.0,8.0,9.0,1.0,13.0,5.0,2.0,7.0,21.0,6.0,344.0,120.0,3.0,,7.0,3.0,125.0,62.0,46.0,49.0,2.0,55.0,639.0,30.0,2.0,1.0,2.0,2.0,1.0,80.0,140.0,,3.0,190.0,436.0,9.0,2.0,2.0,64.0,2.0,15.0,1.0,10.0,2.0,2.0,33.0,33.0,12.0,8.0,2.0,6.0,91.0,3.0,43.0,2.0,34.0,7.0,20.0,,3.0,104.0,2.0,207.0,80.0,18.0,17.0,14.0,7.0,3.0,2.0,26.0,323.0,452.0,9.0,5.0,16.0,3.0,115.0,,67.0,298.0,111.0,2.0,121.0,5.0,,,10.0,151.0,,13.0,2.0,1.0,,2.0,17.0,,7.0,,198.0,6.0,5.0,42.0,46.0,3.0,4.0,3.0,6.0,19.0,,3.0,12.0,2.0,,14.0,2.0,6.0
2016-01-30,3.0,,35.0,2.0,2.0,,4.0,4.0,10.0,,1.0,4.0,4.0,,24.0,,6.0,37.0,1.0,21.0,728.0,7.0,87.0,5.0,3.0,4.0,43.0,2.0,,4.0,2.0,,19.0,7.0,6.0,2.0,2.0,2.0,91.0,31.0,210.0,2.0,2.0,5.0,1.0,4.0,3.0,1.0,13.0,8.0,42.0,43.0,205.0,9.0,8.0,13.0,1.0,2.0,7.0,4.0,25.0,4.0,1.0,,64.0,1.0,253.0,41.0,,2.0,1.0,17.0,,4.0,6.0,4.0,2.0,23.0,1.0,4.0,139.0,13.0,,155.0,444.0,453.0,3.0,,5.0,2.0,15.0,237.0,1.0,2.0,9.0,,12.0,1.0,5.0,22.0,,1.0,1.0,5.0,4.0,1.0,183.0,6.0,5.0,10.0,17.0,4.0,4.0,5.0,257.0,8.0,9.0,5.0,6.0,2.0,,23.0,2.0,,3.0,4.0,7.0,6.0,,5.0,21.0,10.0,11.0,,5.0,2.0,2.0,1.0,8.0,2.0,4.0,123.0,1.0,111.0,15.0,6.0,6.0,,1.0,59.0,1.0,287.0,17.0,5.0,,5.0,2.0,58.0,1.0,4.0,13.0,2.0,15.0,17.0,9.0,34.0,225.0,2.0,1.0,11.0,35.0,6.0,4.0,1.0,356.0,2.0,439.0,10.0,3.0,1.0,8.0,6.0,163.0,21.0,36.0,13.0,6.0,4.0,1.0,2.0,11.0,4.0,82.0,353.0,5.0,174.0,2.0,28.0,4.0,5.0,4.0,,14.0,193.0,63.0,2.0,2.0,7.0,5.0,1.0,7.0,4.0,1.0,5.0,12.0,4.0,220.0,95.0,11.0,,7.0,2.0,89.0,64.0,29.0,35.0,2.0,40.0,468.0,19.0,2.0,,2.0,2.0,1.0,73.0,110.0,,2.0,156.0,383.0,5.0,1.0,1.0,50.0,1.0,11.0,,8.0,2.0,2.0,34.0,30.0,11.0,5.0,2.0,4.0,62.0,2.0,24.0,1.0,26.0,4.0,16.0,1.0,2.0,119.0,2.0,150.0,58.0,14.0,14.0,9.0,8.0,3.0,1.0,18.0,271.0,338.0,5.0,4.0,11.0,3.0,73.0,,82.0,222.0,71.0,2.0,85.0,4.0,,,11.0,103.0,,18.0,5.0,5.0,,2.0,13.0,,5.0,,179.0,3.0,5.0,27.0,46.0,2.0,3.0,2.0,5.0,10.0,,2.0,8.0,2.0,,6.0,2.0,5.0
2016-01-31,6.0,,44.0,2.0,2.0,,5.0,4.0,10.0,1.0,2.0,7.0,6.0,,23.0,,7.0,38.0,1.0,22.0,906.0,8.0,113.0,6.0,4.0,7.0,45.0,2.0,,5.0,3.0,,27.0,10.0,6.0,2.0,4.0,3.0,116.0,38.0,262.0,3.0,3.0,6.0,1.0,5.0,2.0,2.0,18.0,7.0,41.0,52.0,209.0,11.0,14.0,15.0,1.0,2.0,10.0,5.0,31.0,9.0,2.0,,85.0,2.0,284.0,54.0,,2.0,1.0,19.0,,5.0,7.0,6.0,3.0,39.0,2.0,5.0,174.0,18.0,,202.0,544.0,521.0,4.0,,7.0,2.0,21.0,308.0,1.0,2.0,9.0,,11.0,2.0,7.0,25.0,,2.0,1.0,9.0,8.0,2.0,255.0,6.0,6.0,9.0,21.0,5.0,5.0,5.0,239.0,9.0,10.0,4.0,11.0,3.0,,29.0,4.0,,7.0,7.0,9.0,9.0,,6.0,21.0,10.0,16.0,,4.0,3.0,1.0,1.0,7.0,2.0,3.0,123.0,2.0,133.0,17.0,7.0,9.0,,1.0,78.0,1.0,365.0,23.0,7.0,,7.0,1.0,70.0,1.0,6.0,11.0,2.0,14.0,12.0,11.0,44.0,265.0,2.0,2.0,11.0,32.0,6.0,8.0,1.0,395.0,3.0,507.0,13.0,3.0,2.0,12.0,7.0,230.0,26.0,32.0,19.0,8.0,5.0,1.0,2.0,13.0,6.0,102.0,336.0,5.0,192.0,2.0,35.0,5.0,8.0,6.0,,14.0,197.0,81.0,2.0,4.0,7.0,8.0,1.0,11.0,4.0,2.0,7.0,18.0,6.0,299.0,110.0,6.0,,8.0,3.0,108.0,61.0,35.0,46.0,2.0,49.0,581.0,29.0,2.0,1.0,2.0,2.0,1.0,73.0,125.0,,3.0,178.0,415.0,6.0,1.0,2.0,56.0,1.0,12.0,,10.0,2.0,2.0,34.0,31.0,11.0,7.0,2.0,6.0,77.0,3.0,36.0,2.0,32.0,5.0,18.0,,3.0,101.0,2.0,186.0,71.0,17.0,17.0,11.0,7.0,2.0,2.0,23.0,308.0,417.0,8.0,6.0,14.0,3.0,96.0,,76.0,291.0,96.0,2.0,103.0,5.0,,,10.0,131.0,,15.0,3.0,3.0,,2.0,13.0,,7.0,,188.0,5.0,4.0,38.0,46.0,3.0,3.0,3.0,5.0,17.0,,3.0,11.0,2.0,,9.0,2.0,6.0
2016-02-01,8.0,,49.0,2.0,3.0,,5.0,4.0,10.0,,1.0,8.0,5.0,,24.0,,9.0,40.0,2.0,19.0,1045.0,10.0,122.0,7.0,6.0,8.0,49.0,3.0,,7.0,3.0,,32.0,9.0,7.0,2.0,2.0,2.0,136.0,39.0,327.0,2.0,3.0,5.0,2.0,7.0,3.0,2.0,21.0,9.0,45.0,63.0,240.0,7.0,16.0,18.0,2.0,2.0,14.0,6.0,35.0,8.0,2.0,,96.0,2.0,287.0,63.0,,2.0,1.0,23.0,,5.0,9.0,7.0,3.0,52.0,2.0,5.0,201.0,21.0,,228.0,598.0,560.0,4.0,,7.0,4.0,23.0,338.0,2.0,2.0,11.0,,9.0,2.0,7.0,31.0,,2.0,2.0,11.0,8.0,2.0,303.0,6.0,6.0,13.0,20.0,6.0,4.0,5.0,248.0,10.0,11.0,5.0,11.0,3.0,,30.0,3.0,,6.0,6.0,9.0,9.0,,8.0,27.0,15.0,17.0,,5.0,3.0,1.0,1.0,4.0,3.0,4.0,121.0,2.0,157.0,19.0,8.0,12.0,,2.0,85.0,1.0,407.0,23.0,7.0,,7.0,2.0,76.0,2.0,6.0,12.0,2.0,16.0,11.0,16.0,51.0,269.0,2.0,3.0,12.0,31.0,6.0,9.0,2.0,403.0,3.0,551.0,14.0,3.0,3.0,15.0,11.0,298.0,26.0,30.0,22.0,8.0,6.0,2.0,2.0,17.0,6.0,115.0,343.0,5.0,226.0,3.0,42.0,7.0,8.0,7.0,,14.0,196.0,96.0,2.0,4.0,7.0,9.0,1.0,13.0,5.0,2.0,7.0,21.0,6.0,344.0,121.0,3.0,,7.0,3.0,123.0,58.0,47.0,49.0,2.0,55.0,638.0,29.0,2.0,1.0,2.0,2.0,1.0,81.0,138.0,,3.0,189.0,436.0,9.0,2.0,2.0,65.0,2.0,15.0,1.0,10.0,2.0,2.0,32.0,32.0,12.0,7.0,2.0,6.0,88.0,3.0,41.0,2.0,34.0,7.0,19.0,,3.0,103.0,2.0,208.0,78.0,18.0,17.0,14.0,7.0,3.0,2.0,27.0,326.0,445.0,9.0,5.0,16.0,3.0,114.0,,69.0,297.0,113.0,2.0,122.0,5.0,,,10.0,152.0,,12.0,3.0,3.0,,2.0,16.0,,7.0,,197.0,6.0,5.0,43.0,46.0,4.0,3.0,3.0,6.0,20.0,,3.0,12.0,2.0,,15.0,2.0,6.0
2016-02-02,6.0,,49.0,2.0,3.0,,4.0,4.0,10.0,,2.0,6.0,6.0,,24.0,,8.0,38.0,2.0,17.0,1003.0,9.0,114.0,7.0,6.0,8.0,48.0,3.0,,5.0,3.0,,30.0,9.0,8.0,2.0,3.0,3.0,132.0,38.0,319.0,2.0,3.0,5.0,2.0,6.0,3.0,2.0,20.0,8.0,42.0,63.0,232.0,6.0,15.0,19.0,2.0,2.0,13.0,6.0,33.0,9.0,2.0,,90.0,2.0,284.0,59.0,,2.0,1.0,20.0,,4.0,8.0,7.0,3.0,49.0,2.0,5.0,200.0,21.0,,223.0,567.0,540.0,4.0,,6.0,4.0,22.0,332.0,1.0,2.0,11.0,,8.0,2.0,6.0,30.0,,2.0,2.0,10.0,8.0,2.0,289.0,6.0,5.0,12.0,19.0,5.0,4.0,5.0,236.0,11.0,11.0,5.0,11.0,3.0,,30.0,4.0,,5.0,6.0,9.0,8.0,,6.0,31.0,14.0,19.0,,5.0,3.0,1.0,1.0,5.0,3.0,4.0,115.0,1.0,155.0,19.0,8.0,11.0,,2.0,83.0,1.0,361.0,21.0,7.0,,6.0,2.0,75.0,2.0,6.0,12.0,2.0,17.0,11.0,13.0,50.0,251.0,2.0,2.0,12.0,28.0,6.0,10.0,2.0,388.0,3.0,523.0,14.0,3.0,3.0,15.0,9.0,288.0,23.0,29.0,21.0,7.0,5.0,2.0,2.0,17.0,7.0,113.0,335.0,6.0,225.0,3.0,40.0,7.0,8.0,7.0,,13.0,184.0,96.0,2.0,4.0,8.0,8.0,1.0,11.0,5.0,2.0,7.0,19.0,6.0,325.0,117.0,3.0,,7.0,3.0,122.0,58.0,46.0,46.0,2.0,53.0,615.0,29.0,2.0,,2.0,2.0,1.0,78.0,130.0,,3.0,182.0,389.0,8.0,2.0,2.0,60.0,2.0,15.0,,10.0,2.0,2.0,29.0,32.0,12.0,8.0,2.0,6.0,86.0,3.0,37.0,2.0,31.0,7.0,20.0,,2.0,103.0,2.0,196.0,78.0,18.0,15.0,14.0,7.0,3.0,2.0,25.0,310.0,422.0,9.0,5.0,16.0,3.0,107.0,,65.0,285.0,106.0,2.0,115.0,4.0,,,10.0,146.0,,12.0,2.0,3.0,,2.0,16.0,,7.0,,190.0,6.0,5.0,41.0,43.0,4.0,3.0,2.0,6.0,16.0,,3.0,11.0,2.0,,14.0,2.0,5.0
2016-02-03,6.0,,48.0,2.0,3.0,,5.0,4.0,10.0,,1.0,6.0,6.0,,25.0,,9.0,37.0,2.0,18.0,1016.0,9.0,117.0,7.0,6.0,9.0,47.0,3.0,,7.0,3.0,,29.0,9.0,7.0,2.0,4.0,3.0,134.0,38.0,315.0,3.0,3.0,5.0,2.0,6.0,2.0,2.0,20.0,8.0,45.0,63.0,237.0,7.0,15.0,19.0,2.0,2.0,13.0,6.0,34.0,10.0,2.0,,88.0,2.0,329.0,60.0,,2.0,1.0,19.0,,4.0,8.0,7.0,3.0,47.0,2.0,5.0,199.0,21.0,,226.0,569.0,549.0,4.0,,6.0,4.0,22.0,338.0,2.0,2.0,11.0,,9.0,2.0,6.0,29.0,,2.0,2.0,9.0,8.0,2.0,291.0,6.0,5.0,13.0,20.0,5.0,4.0,5.0,239.0,11.0,11.0,5.0,11.0,3.0,,29.0,3.0,,6.0,6.0,8.0,8.0,,6.0,29.0,15.0,18.0,,5.0,3.0,1.0,1.0,5.0,3.0,4.0,122.0,1.0,155.0,19.0,8.0,11.0,,2.0,83.0,1.0,366.0,24.0,7.0,,6.0,2.0,74.0,2.0,5.0,12.0,2.0,16.0,11.0,14.0,50.0,256.0,2.0,3.0,11.0,30.0,6.0,9.0,2.0,391.0,3.0,536.0,13.0,3.0,3.0,15.0,10.0,290.0,22.0,30.0,21.0,8.0,6.0,2.0,2.0,17.0,7.0,115.0,337.0,5.0,226.0,3.0,40.0,7.0,8.0,7.0,,14.0,187.0,95.0,2.0,4.0,7.0,8.0,1.0,11.0,6.0,2.0,7.0,20.0,6.0,333.0,118.0,4.0,,7.0,3.0,121.0,58.0,47.0,48.0,2.0,53.0,610.0,29.0,2.0,,2.0,2.0,1.0,79.0,134.0,,3.0,185.0,424.0,9.0,2.0,2.0,63.0,2.0,14.0,,10.0,2.0,2.0,30.0,33.0,12.0,7.0,2.0,6.0,89.0,3.0,39.0,2.0,31.0,7.0,20.0,,2.0,102.0,2.0,200.0,77.0,18.0,17.0,14.0,7.0,2.0,1.0,24.0,319.0,427.0,8.0,5.0,17.0,3.0,107.0,,64.0,286.0,107.0,2.0,116.0,4.0,,,10.0,151.0,,11.0,4.0,4.0,,2.0,17.0,,7.0,,190.0,6.0,5.0,41.0,44.0,4.0,3.0,3.0,6.0,16.0,,3.0,12.0,2.0,,14.0,2.0,6.0
2016-02-04,8.0,,49.0,2.0,3.0,,5.0,4.0,10.0,1.0,2.0,8.0,6.0,,25.0,,9.0,42.0,2.0,19.0,1045.0,10.0,121.0,7.0,6.0,8.0,50.0,3.0,,7.0,3.0,,32.0,10.0,8.0,2.0,2.0,3.0,137.0,39.0,326.0,3.0,3.0,4.0,2.0,7.0,2.0,2.0,21.0,8.0,44.0,63.0,237.0,7.0,16.0,19.0,2.0,2.0,13.0,6.0,36.0,9.0,2.0,,97.0,2.0,330.0,63.0,,2.0,1.0,23.0,,5.0,9.0,7.0,3.0,53.0,2.0,5.0,199.0,20.0,,230.0,600.0,561.0,4.0,,6.0,4.0,25.0,342.0,2.0,2.0,11.0,,9.0,2.0,7.0,31.0,,2.0,2.0,10.0,8.0,2.0,300.0,6.0,6.0,12.0,20.0,6.0,4.0,5.0,249.0,11.0,11.0,5.0,11.0,3.0,,29.0,3.0,,6.0,6.0,9.0,7.0,,8.0,29.0,15.0,18.0,,5.0,3.0,1.0,1.0,4.0,3.0,4.0,121.0,2.0,156.0,19.0,9.0,12.0,,2.0,85.0,1.0,413.0,22.0,7.0,,7.0,2.0,75.0,2.0,6.0,12.0,2.0,17.0,11.0,16.0,50.0,272.0,2.0,3.0,12.0,31.0,6.0,9.0,2.0,408.0,3.0,555.0,14.0,3.0,3.0,15.0,10.0,299.0,26.0,30.0,22.0,8.0,6.0,2.0,2.0,16.0,7.0,116.0,344.0,6.0,225.0,3.0,42.0,6.0,8.0,7.0,,13.0,199.0,95.0,2.0,4.0,6.0,9.0,1.0,12.0,5.0,2.0,7.0,21.0,6.0,344.0,123.0,3.0,,7.0,3.0,125.0,60.0,47.0,49.0,2.0,55.0,638.0,29.0,2.0,1.0,2.0,2.0,1.0,81.0,137.0,,3.0,191.0,435.0,9.0,2.0,2.0,64.0,2.0,15.0,,10.0,2.0,2.0,34.0,33.0,12.0,7.0,2.0,6.0,90.0,3.0,43.0,2.0,34.0,6.0,20.0,,2.0,104.0,2.0,211.0,79.0,18.0,17.0,14.0,7.0,2.0,2.0,27.0,328.0,449.0,9.0,5.0,16.0,3.0,113.0,,67.0,297.0,113.0,2.0,122.0,5.0,,,10.0,153.0,,12.0,2.0,3.0,,2.0,17.0,,7.0,,198.0,6.0,5.0,43.0,46.0,5.0,3.0,3.0,6.0,19.0,,3.0,12.0,2.0,,14.0,2.0,6.0
2016-02-05,8.0,,49.0,2.0,3.0,,5.0,4.0,10.0,,1.0,8.0,6.0,,25.0,,9.0,40.0,2.0,19.0,1047.0,10.0,123.0,7.0,6.0,8.0,51.0,3.0,,7.0,3.0,,32.0,10.0,8.0,2.0,4.0,3.0,137.0,39.0,329.0,3.0,3.0,5.0,2.0,7.0,3.0,2.0,21.0,8.0,45.0,63.0,239.0,7.0,16.0,18.0,2.0,2.0,13.0,6.0,36.0,10.0,2.0,,96.0,2.0,334.0,59.0,,2.0,1.0,23.0,,5.0,9.0,7.0,3.0,52.0,2.0,5.0,201.0,19.0,,229.0,602.0,563.0,4.0,,7.0,4.0,23.0,341.0,2.0,2.0,11.0,,9.0,2.0,7.0,30.0,,2.0,2.0,10.0,9.0,2.0,301.0,6.0,6.0,12.0,20.0,6.0,4.0,5.0,249.0,12.0,12.0,5.0,11.0,3.0,,28.0,2.0,,6.0,6.0,9.0,8.0,,8.0,27.0,17.0,18.0,,5.0,3.0,1.0,1.0,4.0,3.0,4.0,131.0,2.0,157.0,19.0,9.0,12.0,,2.0,84.0,1.0,410.0,22.0,7.0,,7.0,2.0,73.0,2.0,5.0,12.0,2.0,16.0,11.0,16.0,52.0,269.0,2.0,3.0,12.0,32.0,6.0,8.0,2.0,412.0,3.0,556.0,14.0,3.0,3.0,16.0,11.0,299.0,25.0,35.0,22.0,8.0,6.0,2.0,2.0,16.0,7.0,118.0,345.0,6.0,220.0,3.0,43.0,7.0,8.0,7.0,,14.0,202.0,97.0,2.0,4.0,8.0,9.0,1.0,12.0,6.0,2.0,7.0,22.0,6.0,344.0,122.0,3.0,,7.0,3.0,126.0,62.0,47.0,49.0,2.0,55.0,639.0,30.0,2.0,1.0,2.0,2.0,1.0,81.0,139.0,,3.0,191.0,435.0,9.0,2.0,2.0,64.0,2.0,15.0,1.0,10.0,2.0,2.0,34.0,33.0,12.0,8.0,2.0,6.0,90.0,3.0,43.0,2.0,34.0,6.0,19.0,,2.0,104.0,2.0,207.0,80.0,18.0,17.0,14.0,7.0,3.0,3.0,27.0,326.0,473.0,9.0,5.0,16.0,3.0,114.0,,67.0,298.0,112.0,2.0,122.0,5.0,,,10.0,152.0,,13.0,2.0,3.0,,2.0,16.0,,7.0,,197.0,6.0,5.0,43.0,46.0,3.0,3.0,3.0,6.0,19.0,,3.0,12.0,2.0,,14.0,2.0,6.0
2016-02-06,3.0,,35.0,2.0,2.0,,4.0,4.0,10.0,,1.0,4.0,4.0,,25.0,,6.0,37.0,1.0,20.0,721.0,6.0,87.0,5.0,3.0,5.0,41.0,2.0,,4.0,2.0,,19.0,6.0,7.0,2.0,2.0,2.0,92.0,30.0,205.0,2.0,2.0,4.0,1.0,4.0,3.0,1.0,12.0,6.0,42.0,42.0,205.0,7.0,8.0,15.0,1.0,2.0,7.0,4.0,24.0,4.0,1.0,,61.0,1.0,255.0,41.0,,2.0,1.0,18.0,,4.0,6.0,4.0,2.0,22.0,1.0,3.0,140.0,11.0,,151.0,450.0,455.0,3.0,,5.0,2.0,14.0,215.0,1.0,2.0,9.0,,12.0,1.0,4.0,22.0,,1.0,1.0,6.0,4.0,1.0,182.0,6.0,5.0,10.0,16.0,3.0,4.0,5.0,257.0,9.0,10.0,5.0,6.0,2.0,,20.0,2.0,,4.0,4.0,7.0,6.0,,5.0,19.0,9.0,11.0,,4.0,2.0,2.0,1.0,8.0,2.0,4.0,122.0,1.0,112.0,15.0,6.0,7.0,,1.0,58.0,1.0,289.0,17.0,4.0,,4.0,2.0,55.0,1.0,4.0,13.0,2.0,15.0,17.0,8.0,35.0,227.0,2.0,1.0,11.0,35.0,6.0,5.0,1.0,353.0,2.0,428.0,10.0,3.0,1.0,8.0,6.0,157.0,20.0,36.0,13.0,6.0,4.0,2.0,2.0,11.0,3.0,84.0,349.0,5.0,173.0,2.0,29.0,4.0,5.0,4.0,,14.0,195.0,62.0,2.0,2.0,7.0,5.0,1.0,6.0,5.0,1.0,5.0,12.0,4.0,222.0,100.0,11.0,,7.0,2.0,89.0,65.0,28.0,37.0,2.0,39.0,462.0,19.0,2.0,,2.0,2.0,1.0,73.0,108.0,,2.0,154.0,383.0,5.0,1.0,1.0,50.0,1.0,11.0,,8.0,2.0,2.0,36.0,30.0,11.0,5.0,2.0,4.0,61.0,2.0,24.0,1.0,26.0,4.0,15.0,1.0,1.0,117.0,2.0,149.0,57.0,12.0,14.0,9.0,8.0,3.0,1.0,16.0,266.0,347.0,5.0,4.0,10.0,3.0,72.0,,81.0,217.0,70.0,2.0,85.0,4.0,,,9.0,106.0,,18.0,5.0,5.0,,2.0,11.0,,5.0,,178.0,3.0,5.0,27.0,46.0,5.0,2.0,2.0,5.0,9.0,,2.0,8.0,2.0,,7.0,2.0,5.0
2016-02-07,4.0,,38.0,2.0,1.0,,5.0,4.0,10.0,1.0,2.0,6.0,4.0,,20.0,,6.0,37.0,1.0,21.0,801.0,7.0,101.0,5.0,3.0,7.0,42.0,2.0,,5.0,2.0,,23.0,7.0,4.0,2.0,4.0,2.0,98.0,31.0,243.0,3.0,2.0,5.0,1.0,5.0,2.0,2.0,16.0,7.0,33.0,47.0,175.0,7.0,11.0,13.0,1.0,2.0,8.0,4.0,29.0,10.0,2.0,,78.0,2.0,247.0,44.0,,2.0,1.0,18.0,,3.0,6.0,4.0,2.0,28.0,2.0,4.0,144.0,12.0,,193.0,465.0,512.0,3.0,,4.0,3.0,16.0,227.0,1.0,2.0,8.0,,11.0,1.0,4.0,22.0,,1.0,1.0,7.0,5.0,1.0,238.0,5.0,6.0,9.0,18.0,3.0,3.0,5.0,231.0,7.0,9.0,4.0,9.0,3.0,,22.0,2.0,,7.0,6.0,8.0,6.0,,6.0,22.0,9.0,13.0,,4.0,2.0,1.0,1.0,8.0,2.0,3.0,120.0,2.0,109.0,16.0,5.0,8.0,,1.0,71.0,1.0,352.0,19.0,5.0,,7.0,1.0,60.0,1.0,5.0,9.0,2.0,14.0,12.0,10.0,38.0,260.0,2.0,2.0,11.0,32.0,6.0,6.0,1.0,347.0,3.0,467.0,12.0,3.0,2.0,10.0,7.0,202.0,24.0,32.0,18.0,7.0,5.0,1.0,1.0,11.0,4.0,88.0,307.0,4.0,170.0,2.0,33.0,5.0,7.0,3.0,,10.0,195.0,75.0,2.0,3.0,5.0,6.0,1.0,9.0,4.0,1.0,7.0,13.0,4.0,249.0,103.0,7.0,,8.0,3.0,92.0,61.0,30.0,40.0,2.0,41.0,527.0,23.0,2.0,1.0,2.0,2.0,1.0,73.0,119.0,,2.0,171.0,373.0,4.0,1.0,1.0,48.0,1.0,12.0,,9.0,2.0,2.0,35.0,23.0,10.0,7.0,2.0,5.0,65.0,3.0,31.0,2.0,27.0,5.0,17.0,,2.0,97.0,2.0,169.0,66.0,14.0,16.0,9.0,7.0,2.0,2.0,20.0,288.0,395.0,7.0,5.0,12.0,3.0,88.0,,75.0,234.0,79.0,2.0,86.0,5.0,,,9.0,117.0,,15.0,3.0,3.0,,2.0,12.0,,6.0,,177.0,4.0,5.0,33.0,47.0,4.0,2.0,3.0,4.0,15.0,,2.0,11.0,2.0,,6.0,2.0,6.0
2016-02-08,8.0,,49.0,2.0,3.0,,5.0,4.0,10.0,,1.0,8.0,6.0,,23.0,,9.0,40.0,2.0,19.0,1042.0,9.0,122.0,7.0,6.0,9.0,50.0,3.0,,7.0,3.0,,32.0,9.0,8.0,2.0,2.0,3.0,134.0,39.0,326.0,3.0,3.0,4.0,2.0,7.0,3.0,2.0,21.0,9.0,44.0,62.0,239.0,7.0,16.0,18.0,2.0,2.0,14.0,6.0,35.0,9.0,2.0,,99.0,2.0,296.0,63.0,,2.0,1.0,23.0,,5.0,9.0,7.0,3.0,52.0,2.0,5.0,201.0,21.0,,224.0,605.0,560.0,4.0,,5.0,4.0,24.0,340.0,2.0,2.0,11.0,,9.0,2.0,7.0,31.0,,2.0,2.0,10.0,8.0,2.0,304.0,6.0,6.0,12.0,21.0,6.0,4.0,5.0,248.0,12.0,11.0,5.0,11.0,3.0,,28.0,3.0,,6.0,6.0,9.0,9.0,,8.0,29.0,15.0,19.0,,5.0,3.0,1.0,1.0,4.0,3.0,4.0,120.0,2.0,157.0,16.0,7.0,12.0,,2.0,81.0,1.0,410.0,21.0,7.0,,7.0,2.0,75.0,2.0,6.0,12.0,2.0,16.0,11.0,16.0,51.0,278.0,2.0,3.0,12.0,31.0,6.0,6.0,2.0,403.0,3.0,546.0,14.0,3.0,3.0,15.0,12.0,299.0,26.0,30.0,22.0,8.0,5.0,2.0,2.0,17.0,7.0,118.0,342.0,6.0,223.0,3.0,42.0,7.0,8.0,7.0,,14.0,196.0,97.0,2.0,4.0,7.0,9.0,1.0,12.0,6.0,2.0,7.0,21.0,6.0,339.0,122.0,3.0,,7.0,3.0,123.0,58.0,47.0,49.0,2.0,55.0,634.0,29.0,2.0,1.0,2.0,2.0,1.0,81.0,139.0,,3.0,189.0,439.0,9.0,2.0,2.0,62.0,2.0,15.0,1.0,10.0,2.0,2.0,33.0,31.0,12.0,6.0,2.0,6.0,89.0,3.0,41.0,2.0,34.0,6.0,21.0,,2.0,103.0,2.0,209.0,81.0,18.0,17.0,14.0,7.0,3.0,2.0,27.0,326.0,467.0,8.0,5.0,16.0,3.0,122.0,,69.0,297.0,113.0,2.0,121.0,5.0,,,10.0,151.0,,12.0,3.0,4.0,,2.0,14.0,,7.0,,196.0,6.0,5.0,43.0,46.0,4.0,3.0,3.0,6.0,19.0,,3.0,12.0,2.0,,14.0,2.0,6.0
2016-02-09,6.0,,49.0,2.0,3.0,,4.0,4.0,10.0,,2.0,6.0,6.0,,23.0,,8.0,38.0,2.0,17.0,1004.0,8.0,117.0,7.0,6.0,8.0,48.0,3.0,,5.0,3.0,,31.0,10.0,8.0,2.0,3.0,3.0,134.0,38.0,319.0,2.0,3.0,5.0,2.0,6.0,3.0,2.0,20.0,8.0,42.0,63.0,235.0,6.0,15.0,19.0,2.0,2.0,13.0,6.0,34.0,8.0,2.0,,90.0,2.0,284.0,58.0,,2.0,1.0,20.0,,4.0,8.0,7.0,3.0,48.0,2.0,5.0,201.0,20.0,,224.0,567.0,539.0,4.0,,5.0,4.0,23.0,335.0,1.0,2.0,11.0,,8.0,2.0,6.0,30.0,,2.0,2.0,10.0,8.0,2.0,294.0,6.0,5.0,12.0,19.0,5.0,4.0,5.0,236.0,11.0,11.0,5.0,11.0,3.0,,30.0,4.0,,5.0,7.0,9.0,8.0,,6.0,31.0,14.0,18.0,,5.0,3.0,1.0,1.0,4.0,3.0,4.0,118.0,1.0,156.0,18.0,8.0,11.0,,2.0,85.0,1.0,367.0,20.0,7.0,,6.0,2.0,75.0,2.0,6.0,12.0,2.0,17.0,11.0,13.0,50.0,253.0,2.0,2.0,12.0,28.0,6.0,8.0,2.0,392.0,3.0,528.0,14.0,3.0,3.0,15.0,10.0,288.0,22.0,29.0,21.0,8.0,5.0,2.0,2.0,17.0,6.0,114.0,333.0,6.0,227.0,3.0,40.0,7.0,8.0,7.0,,13.0,186.0,95.0,2.0,4.0,8.0,8.0,1.0,11.0,5.0,2.0,7.0,18.0,6.0,330.0,116.0,3.0,,7.0,3.0,124.0,58.0,47.0,47.0,2.0,54.0,612.0,29.0,2.0,,2.0,2.0,1.0,77.0,130.0,,3.0,183.0,391.0,8.0,2.0,2.0,63.0,2.0,15.0,,10.0,2.0,2.0,29.0,32.0,12.0,6.0,2.0,6.0,87.0,3.0,37.0,2.0,31.0,7.0,20.0,,3.0,103.0,2.0,196.0,81.0,18.0,15.0,14.0,7.0,3.0,2.0,24.0,313.0,424.0,9.0,5.0,16.0,3.0,109.0,,64.0,283.0,107.0,2.0,117.0,4.0,,,11.0,148.0,,12.0,2.0,3.0,,2.0,17.0,,7.0,,192.0,6.0,5.0,41.0,43.0,4.0,3.0,2.0,6.0,16.0,,3.0,11.0,2.0,,15.0,2.0,5.0
2016-02-10,6.0,,48.0,2.0,3.0,,5.0,4.0,10.0,,1.0,6.0,6.0,,25.0,,9.0,37.0,2.0,18.0,1018.0,9.0,120.0,7.0,6.0,8.0,48.0,3.0,,7.0,3.0,,30.0,9.0,8.0,2.0,4.0,3.0,134.0,38.0,316.0,3.0,3.0,5.0,2.0,6.0,2.0,2.0,20.0,8.0,44.0,63.0,239.0,7.0,15.0,19.0,2.0,2.0,13.0,6.0,35.0,9.0,2.0,,91.0,2.0,331.0,59.0,,2.0,1.0,20.0,,5.0,8.0,7.0,3.0,47.0,2.0,5.0,200.0,20.0,,227.0,588.0,546.0,4.0,,5.0,3.0,23.0,341.0,2.0,2.0,11.0,,9.0,2.0,6.0,29.0,,2.0,2.0,9.0,8.0,2.0,291.0,6.0,5.0,12.0,20.0,5.0,4.0,5.0,240.0,12.0,11.0,5.0,11.0,3.0,,28.0,3.0,,6.0,7.0,9.0,8.0,,6.0,28.0,14.0,18.0,,5.0,3.0,1.0,1.0,6.0,3.0,4.0,123.0,1.0,156.0,19.0,8.0,11.0,,2.0,85.0,1.0,368.0,24.0,7.0,,6.0,2.0,75.0,2.0,5.0,12.0,2.0,16.0,11.0,14.0,50.0,257.0,2.0,3.0,11.0,30.0,6.0,9.0,2.0,394.0,3.0,542.0,13.0,3.0,3.0,15.0,10.0,290.0,22.0,30.0,21.0,8.0,6.0,2.0,2.0,17.0,7.0,114.0,336.0,5.0,227.0,3.0,39.0,7.0,8.0,7.0,,14.0,192.0,95.0,2.0,4.0,8.0,8.0,1.0,11.0,7.0,2.0,7.0,20.0,6.0,334.0,118.0,5.0,,7.0,3.0,124.0,59.0,48.0,47.0,2.0,54.0,610.0,30.0,2.0,,2.0,2.0,1.0,80.0,135.0,,3.0,189.0,427.0,9.0,2.0,2.0,64.0,2.0,14.0,,10.0,2.0,2.0,30.0,32.0,11.0,6.0,2.0,6.0,91.0,3.0,40.0,2.0,31.0,7.0,20.0,,2.0,103.0,2.0,199.0,78.0,18.0,17.0,14.0,7.0,2.0,1.0,24.0,324.0,431.0,8.0,5.0,17.0,3.0,110.0,,62.0,286.0,109.0,2.0,119.0,4.0,,,11.0,151.0,,11.0,4.0,3.0,,2.0,17.0,,7.0,,192.0,6.0,5.0,41.0,44.0,4.0,3.0,3.0,6.0,16.0,,3.0,12.0,2.0,,14.0,2.0,6.0
2016-02-11,8.0,,49.0,2.0,3.0,,5.0,4.0,10.0,1.0,2.0,8.0,6.0,,24.0,,9.0,42.0,2.0,23.0,1052.0,11.0,122.0,6.0,5.0,8.0,52.0,3.0,,8.0,3.0,,32.0,10.0,7.0,2.0,2.0,3.0,136.0,43.0,331.0,2.0,3.0,4.0,2.0,7.0,2.0,2.0,21.0,10.0,47.0,63.0,243.0,11.0,16.0,18.0,2.0,2.0,13.0,6.0,35.0,10.0,3.0,,98.0,2.0,322.0,63.0,,2.0,1.0,21.0,,2.0,8.0,7.0,3.0,47.0,2.0,5.0,200.0,20.0,,231.0,614.0,551.0,4.0,,6.0,3.0,27.0,347.0,2.0,2.0,11.0,,10.0,2.0,7.0,29.0,,2.0,2.0,10.0,8.0,2.0,329.0,6.0,6.0,12.0,20.0,6.0,5.0,6.0,259.0,12.0,14.0,5.0,11.0,3.0,,28.0,3.0,,8.0,7.0,9.0,8.0,,8.0,30.0,15.0,19.0,,3.0,3.0,1.0,1.0,4.0,3.0,4.0,126.0,2.0,155.0,19.0,10.0,12.0,,2.0,81.0,1.0,418.0,23.0,7.0,,7.0,2.0,77.0,2.0,6.0,12.0,2.0,17.0,12.0,16.0,49.0,278.0,2.0,3.0,12.0,32.0,6.0,9.0,2.0,408.0,3.0,567.0,14.0,3.0,3.0,14.0,9.0,298.0,26.0,30.0,21.0,8.0,6.0,2.0,2.0,16.0,6.0,115.0,352.0,5.0,225.0,3.0,36.0,7.0,8.0,7.0,,16.0,205.0,96.0,2.0,4.0,5.0,9.0,1.0,12.0,6.0,2.0,6.0,21.0,6.0,351.0,125.0,4.0,,9.0,3.0,124.0,62.0,46.0,47.0,2.0,56.0,658.0,29.0,2.0,1.0,2.0,2.0,1.0,86.0,143.0,,3.0,195.0,452.0,9.0,2.0,2.0,61.0,3.0,15.0,,10.0,2.0,2.0,37.0,32.0,12.0,6.0,2.0,6.0,92.0,3.0,42.0,2.0,35.0,7.0,21.0,,3.0,114.0,3.0,212.0,79.0,19.0,15.0,14.0,8.0,2.0,2.0,25.0,335.0,454.0,9.0,6.0,16.0,3.0,113.0,,71.0,299.0,113.0,2.0,122.0,5.0,,,12.0,154.0,,15.0,2.0,4.0,,2.0,14.0,,7.0,,203.0,6.0,5.0,44.0,47.0,4.0,3.0,3.0,6.0,19.0,,3.0,12.0,2.0,,19.0,2.0,6.0
2016-02-12,7.0,,49.0,2.0,3.0,,5.0,4.0,10.0,,2.0,8.0,7.0,,23.0,,8.0,41.0,2.0,25.0,1071.0,9.0,125.0,6.0,4.0,7.0,53.0,3.0,,8.0,3.0,,35.0,10.0,6.0,2.0,4.0,1.0,135.0,43.0,328.0,2.0,3.0,4.0,2.0,7.0,3.0,2.0,21.0,9.0,45.0,63.0,243.0,12.0,16.0,19.0,2.0,2.0,14.0,5.0,35.0,14.0,2.0,,98.0,2.0,317.0,68.0,,2.0,1.0,21.0,,2.0,9.0,6.0,4.0,51.0,2.0,5.0,201.0,19.0,,231.0,609.0,548.0,4.0,,8.0,3.0,25.0,346.0,2.0,2.0,11.0,,10.0,2.0,7.0,29.0,,2.0,2.0,10.0,7.0,2.0,323.0,6.0,6.0,11.0,20.0,4.0,5.0,6.0,258.0,12.0,13.0,5.0,12.0,3.0,,26.0,6.0,,8.0,6.0,9.0,9.0,,8.0,25.0,13.0,22.0,,3.0,3.0,1.0,1.0,5.0,3.0,5.0,133.0,2.0,156.0,19.0,10.0,12.0,,2.0,80.0,2.0,413.0,23.0,7.0,,7.0,2.0,83.0,2.0,6.0,12.0,3.0,17.0,13.0,16.0,52.0,277.0,2.0,3.0,12.0,34.0,6.0,9.0,2.0,414.0,3.0,571.0,14.0,4.0,3.0,16.0,10.0,300.0,26.0,35.0,23.0,10.0,6.0,2.0,2.0,17.0,5.0,115.0,360.0,5.0,224.0,3.0,37.0,6.0,8.0,7.0,,16.0,202.0,94.0,2.0,4.0,2.0,9.0,1.0,12.0,7.0,2.0,5.0,23.0,6.0,348.0,127.0,4.0,,12.0,4.0,125.0,63.0,45.0,45.0,2.0,56.0,653.0,31.0,2.0,1.0,2.0,2.0,1.0,87.0,146.0,,3.0,195.0,462.0,10.0,2.0,2.0,63.0,3.0,15.0,1.0,10.0,2.0,2.0,39.0,31.0,14.0,6.0,2.0,6.0,90.0,3.0,46.0,2.0,35.0,7.0,23.0,,3.0,117.0,3.0,211.0,80.0,20.0,15.0,14.0,9.0,3.0,2.0,29.0,334.0,459.0,9.0,6.0,16.0,3.0,115.0,,75.0,303.0,113.0,2.0,122.0,5.0,,,13.0,151.0,,16.0,3.0,4.0,,2.0,14.0,,8.0,,204.0,6.0,5.0,44.0,47.0,6.0,3.0,3.0,6.0,20.0,,3.0,12.0,2.0,,18.0,2.0,6.0
2016-02-13,3.0,,34.0,2.0,2.0,,4.0,4.0,10.0,,1.0,6.0,5.0,,23.0,,5.0,37.0,1.0,28.0,744.0,6.0,87.0,5.0,3.0,3.0,42.0,2.0,,4.0,2.0,,20.0,7.0,4.0,2.0,2.0,2.0,94.0,34.0,226.0,2.0,2.0,3.0,1.0,5.0,3.0,1.0,15.0,10.0,45.0,40.0,210.0,12.0,8.0,15.0,1.0,2.0,7.0,4.0,25.0,9.0,2.0,,66.0,1.0,252.0,44.0,,2.0,1.0,15.0,,2.0,6.0,4.0,1.0,22.0,2.0,4.0,140.0,13.0,,152.0,464.0,454.0,2.0,,6.0,4.0,16.0,228.0,1.0,1.0,9.0,,14.0,1.0,5.0,20.0,,1.0,1.0,8.0,4.0,1.0,214.0,7.0,5.0,9.0,15.0,3.0,5.0,5.0,268.0,10.0,9.0,4.0,6.0,2.0,,22.0,2.0,,6.0,6.0,7.0,7.0,,5.0,15.0,8.0,15.0,,2.0,2.0,4.0,1.0,9.0,2.0,4.0,126.0,1.0,110.0,15.0,7.0,7.0,,1.0,62.0,1.0,290.0,15.0,5.0,,5.0,2.0,55.0,1.0,5.0,13.0,2.0,15.0,18.0,8.0,39.0,243.0,2.0,1.0,11.0,36.0,6.0,7.0,1.0,356.0,3.0,440.0,10.0,4.0,2.0,8.0,6.0,171.0,24.0,37.0,16.0,6.0,4.0,2.0,2.0,12.0,5.0,87.0,367.0,3.0,177.0,2.0,23.0,6.0,5.0,4.0,,19.0,196.0,63.0,1.0,2.0,,5.0,2.0,7.0,6.0,1.0,4.0,13.0,4.0,229.0,101.0,9.0,,10.0,2.0,90.0,67.0,29.0,34.0,2.0,41.0,487.0,19.0,2.0,,2.0,1.0,1.0,77.0,112.0,,2.0,159.0,400.0,8.0,1.0,1.0,49.0,2.0,13.0,,7.0,2.0,2.0,37.0,27.0,12.0,4.0,2.0,4.0,61.0,2.0,23.0,1.0,29.0,4.0,20.0,1.0,4.0,130.0,2.0,159.0,57.0,17.0,13.0,9.0,10.0,3.0,2.0,17.0,277.0,346.0,6.0,5.0,11.0,3.0,71.0,,90.0,232.0,71.0,2.0,88.0,4.0,,,10.0,103.0,,21.0,5.0,6.0,,2.0,11.0,,7.0,,186.0,4.0,5.0,26.0,46.0,5.0,2.0,2.0,4.0,12.0,,2.0,9.0,2.0,,8.0,2.0,4.0
2016-02-14,4.0,,45.0,2.0,2.0,,5.0,4.0,10.0,1.0,1.0,6.0,6.0,,24.0,,7.0,37.0,1.0,25.0,898.0,7.0,104.0,5.0,2.0,5.0,44.0,2.0,,5.0,2.0,,28.0,9.0,5.0,2.0,4.0,3.0,110.0,36.0,253.0,2.0,2.0,4.0,1.0,7.0,2.0,2.0,19.0,11.0,37.0,51.0,203.0,15.0,12.0,15.0,1.0,2.0,10.0,5.0,28.0,9.0,2.0,,79.0,1.0,282.0,51.0,,2.0,1.0,16.0,,2.0,7.0,6.0,2.0,28.0,2.0,5.0,171.0,14.0,,188.0,531.0,517.0,2.0,,7.0,3.0,19.0,241.0,1.0,2.0,9.0,,13.0,1.0,5.0,25.0,,2.0,1.0,10.0,5.0,2.0,268.0,6.0,6.0,10.0,19.0,3.0,5.0,5.0,255.0,10.0,14.0,5.0,11.0,3.0,,24.0,4.0,,6.0,5.0,8.0,8.0,,8.0,22.0,11.0,16.0,,2.0,2.0,1.0,1.0,9.0,2.0,4.0,126.0,2.0,133.0,17.0,7.0,8.0,,1.0,70.0,1.0,365.0,19.0,6.0,,5.0,1.0,68.0,1.0,6.0,11.0,3.0,14.0,19.0,14.0,44.0,259.0,2.0,2.0,11.0,34.0,6.0,6.0,1.0,387.0,3.0,487.0,13.0,4.0,1.0,13.0,10.0,208.0,25.0,32.0,16.0,7.0,5.0,1.0,1.0,13.0,4.0,97.0,344.0,3.0,190.0,2.0,30.0,5.0,7.0,4.0,,14.0,201.0,80.0,2.0,3.0,2.0,8.0,1.0,9.0,6.0,1.0,5.0,16.0,5.0,285.0,113.0,10.0,,10.0,1.0,106.0,63.0,37.0,36.0,2.0,48.0,579.0,25.0,2.0,1.0,2.0,2.0,1.0,80.0,129.0,,2.0,176.0,410.0,10.0,1.0,1.0,56.0,2.0,14.0,,8.0,2.0,2.0,39.0,28.0,11.0,5.0,2.0,5.0,74.0,3.0,34.0,2.0,30.0,6.0,18.0,,3.0,118.0,3.0,184.0,72.0,15.0,15.0,11.0,9.0,2.0,2.0,24.0,308.0,400.0,7.0,6.0,14.0,3.0,91.0,,84.0,259.0,93.0,2.0,99.0,5.0,,,14.0,122.0,,18.0,3.0,4.0,,2.0,14.0,,7.0,,192.0,4.0,5.0,37.0,45.0,3.0,4.0,2.0,5.0,17.0,,2.0,11.0,2.0,,8.0,2.0,6.0
2016-02-15,6.0,,49.0,2.0,3.0,,5.0,4.0,10.0,,2.0,8.0,7.0,,23.0,,8.0,41.0,2.0,25.0,1066.0,9.0,123.0,6.0,4.0,8.0,54.0,3.0,,8.0,3.0,,36.0,10.0,4.0,2.0,2.0,3.0,135.0,42.0,323.0,2.0,3.0,4.0,2.0,7.0,3.0,2.0,21.0,12.0,46.0,63.0,242.0,12.0,16.0,18.0,2.0,2.0,14.0,5.0,35.0,13.0,2.0,,100.0,1.0,317.0,66.0,,2.0,1.0,21.0,,2.0,9.0,6.0,4.0,53.0,2.0,6.0,199.0,16.0,,225.0,607.0,546.0,4.0,,8.0,3.0,23.0,345.0,2.0,2.0,11.0,,10.0,2.0,7.0,29.0,,2.0,2.0,10.0,8.0,2.0,331.0,6.0,6.0,10.0,20.0,4.0,5.0,5.0,258.0,13.0,14.0,5.0,12.0,3.0,,30.0,4.0,,8.0,6.0,9.0,9.0,,8.0,24.0,15.0,22.0,,3.0,3.0,1.0,1.0,5.0,3.0,4.0,124.0,2.0,156.0,20.0,9.0,12.0,,2.0,78.0,2.0,410.0,24.0,7.0,,7.0,2.0,78.0,2.0,6.0,12.0,3.0,16.0,13.0,16.0,53.0,276.0,2.0,3.0,12.0,32.0,6.0,10.0,2.0,411.0,3.0,557.0,14.0,4.0,3.0,16.0,10.0,294.0,26.0,30.0,22.0,10.0,6.0,2.0,2.0,17.0,6.0,115.0,354.0,5.0,228.0,3.0,36.0,7.0,7.0,7.0,,17.0,202.0,94.0,2.0,4.0,1.0,9.0,1.0,13.0,7.0,2.0,5.0,23.0,6.0,345.0,127.0,3.0,,12.0,4.0,123.0,61.0,46.0,43.0,2.0,55.0,638.0,31.0,2.0,1.0,2.0,2.0,1.0,86.0,141.0,,3.0,194.0,441.0,10.0,2.0,2.0,66.0,3.0,15.0,1.0,10.0,2.0,2.0,37.0,30.0,12.0,5.0,2.0,6.0,89.0,3.0,46.0,2.0,34.0,7.0,23.0,,4.0,119.0,3.0,209.0,80.0,19.0,15.0,14.0,9.0,3.0,2.0,29.0,333.0,444.0,9.0,6.0,16.0,3.0,114.0,,76.0,303.0,114.0,2.0,122.0,5.0,,,13.0,148.0,,16.0,3.0,4.0,,2.0,13.0,,9.0,,205.0,6.0,4.0,44.0,47.0,6.0,3.0,3.0,6.0,20.0,,3.0,12.0,2.0,,17.0,2.0,6.0
2016-02-16,5.0,,48.0,2.0,3.0,,5.0,4.0,10.0,,1.0,8.0,7.0,,22.0,,8.0,37.0,2.0,23.0,1055.0,9.0,122.0,6.0,4.0,8.0,52.0,3.0,,7.0,3.0,,36.0,10.0,5.0,2.0,3.0,3.0,136.0,42.0,323.0,2.0,3.0,4.0,2.0,7.0,3.0,2.0,21.0,12.0,48.0,62.0,242.0,12.0,16.0,17.0,2.0,2.0,14.0,6.0,33.0,14.0,2.0,,93.0,2.0,317.0,65.0,,2.0,1.0,20.0,,2.0,9.0,6.0,4.0,50.0,2.0,6.0,201.0,16.0,,228.0,606.0,538.0,4.0,,7.0,4.0,25.0,341.0,1.0,2.0,11.0,,10.0,2.0,6.0,29.0,,2.0,2.0,10.0,8.0,2.0,325.0,6.0,5.0,12.0,18.0,4.0,5.0,5.0,256.0,13.0,11.0,5.0,12.0,3.0,,30.0,5.0,,8.0,7.0,8.0,10.0,,7.0,24.0,13.0,22.0,,3.0,3.0,1.0,1.0,6.0,3.0,5.0,119.0,2.0,155.0,20.0,9.0,12.0,,2.0,78.0,1.0,416.0,23.0,7.0,,7.0,2.0,77.0,2.0,7.0,12.0,3.0,17.0,12.0,16.0,53.0,262.0,2.0,2.0,12.0,30.0,6.0,10.0,2.0,393.0,3.0,536.0,14.0,3.0,3.0,16.0,10.0,301.0,23.0,29.0,22.0,10.0,6.0,2.0,2.0,18.0,6.0,113.0,353.0,5.0,228.0,3.0,39.0,6.0,8.0,7.0,,17.0,194.0,95.0,2.0,4.0,1.0,9.0,1.0,13.0,6.0,2.0,5.0,20.0,6.0,344.0,126.0,1.0,,12.0,4.0,124.0,61.0,47.0,43.0,2.0,54.0,642.0,31.0,2.0,,2.0,2.0,1.0,87.0,137.0,,3.0,193.0,434.0,10.0,2.0,2.0,65.0,3.0,15.0,,10.0,2.0,2.0,35.0,30.0,13.0,5.0,2.0,6.0,90.0,3.0,46.0,2.0,34.0,7.0,22.0,,4.0,120.0,3.0,204.0,82.0,19.0,15.0,14.0,9.0,3.0,2.0,28.0,326.0,435.0,9.0,6.0,16.0,3.0,112.0,,73.0,301.0,111.0,2.0,121.0,5.0,,,13.0,149.0,,15.0,3.0,4.0,,2.0,14.0,,9.0,,200.0,6.0,5.0,42.0,46.0,6.0,3.0,2.0,6.0,18.0,,3.0,12.0,2.0,,17.0,2.0,6.0
2016-02-17,6.0,,50.0,2.0,3.0,,5.0,4.0,10.0,,1.0,8.0,7.0,,23.0,,9.0,37.0,2.0,23.0,1060.0,9.0,121.0,6.0,4.0,7.0,53.0,3.0,,7.0,3.0,,36.0,10.0,5.0,2.0,4.0,3.0,138.0,42.0,325.0,2.0,3.0,4.0,2.0,7.0,2.0,2.0,21.0,13.0,46.0,63.0,240.0,12.0,16.0,18.0,2.0,2.0,14.0,6.0,34.0,14.0,2.0,,98.0,2.0,319.0,62.0,,2.0,1.0,18.0,,2.0,8.0,6.0,4.0,49.0,2.0,6.0,200.0,15.0,,228.0,602.0,538.0,4.0,,7.0,3.0,23.0,342.0,2.0,2.0,11.0,,10.0,2.0,6.0,29.0,,2.0,2.0,10.0,8.0,2.0,319.0,6.0,5.0,13.0,19.0,4.0,5.0,5.0,255.0,13.0,12.0,5.0,12.0,3.0,,30.0,5.0,,7.0,6.0,8.0,9.0,,6.0,25.0,14.0,23.0,,3.0,3.0,1.0,1.0,6.0,3.0,4.0,124.0,2.0,155.0,20.0,9.0,12.0,,2.0,79.0,2.0,411.0,23.0,7.0,,7.0,2.0,77.0,2.0,6.0,12.0,3.0,16.0,12.0,16.0,52.0,265.0,2.0,3.0,11.0,31.0,6.0,10.0,2.0,401.0,3.0,550.0,14.0,4.0,3.0,16.0,9.0,305.0,23.0,30.0,22.0,10.0,6.0,2.0,3.0,18.0,6.0,115.0,355.0,5.0,228.0,3.0,36.0,7.0,8.0,7.0,,17.0,200.0,95.0,2.0,4.0,1.0,9.0,1.0,13.0,6.0,2.0,5.0,24.0,6.0,341.0,126.0,4.0,,12.0,4.0,125.0,61.0,44.0,42.0,2.0,53.0,638.0,31.0,2.0,,2.0,2.0,1.0,86.0,141.0,,3.0,190.0,436.0,10.0,2.0,2.0,66.0,3.0,15.0,,10.0,2.0,2.0,35.0,30.0,12.0,5.0,2.0,6.0,90.0,3.0,46.0,2.0,34.0,7.0,22.0,,4.0,119.0,3.0,207.0,79.0,19.0,15.0,14.0,9.0,2.0,2.0,28.0,327.0,437.0,9.0,6.0,16.0,3.0,112.0,,69.0,300.0,112.0,2.0,122.0,5.0,,,13.0,152.0,,14.0,4.0,3.0,,2.0,13.0,,9.0,,203.0,6.0,5.0,43.0,44.0,6.0,3.0,3.0,6.0,16.0,,3.0,12.0,2.0,,18.0,2.0,6.0
2016-02-18,6.0,,49.0,2.0,3.0,,5.0,4.0,10.0,1.0,2.0,8.0,7.0,,23.0,,8.0,42.0,2.0,25.0,1066.0,9.0,123.0,7.0,4.0,7.0,55.0,3.0,,8.0,3.0,,36.0,10.0,5.0,2.0,2.0,3.0,136.0,42.0,331.0,2.0,3.0,3.0,2.0,7.0,2.0,2.0,21.0,12.0,45.0,63.0,244.0,12.0,16.0,18.0,2.0,2.0,14.0,6.0,34.0,15.0,2.0,,98.0,2.0,320.0,67.0,,2.0,1.0,21.0,,2.0,9.0,6.0,4.0,54.0,2.0,6.0,200.0,16.0,,230.0,609.0,544.0,4.0,,8.0,3.0,25.0,345.0,2.0,2.0,11.0,,10.0,2.0,7.0,28.0,,2.0,2.0,10.0,7.0,2.0,329.0,6.0,6.0,11.0,20.0,5.0,5.0,5.0,260.0,13.0,13.0,5.0,12.0,3.0,,28.0,5.0,,8.0,7.0,9.0,10.0,,8.0,25.0,13.0,21.0,,3.0,3.0,1.0,1.0,5.0,3.0,5.0,125.0,2.0,155.0,20.0,9.0,12.0,,2.0,78.0,1.0,417.0,23.0,7.0,,6.0,2.0,78.0,2.0,7.0,12.0,3.0,17.0,13.0,16.0,53.0,279.0,2.0,3.0,12.0,32.0,6.0,10.0,2.0,409.0,3.0,567.0,14.0,3.0,3.0,17.0,9.0,305.0,26.0,30.0,22.0,10.0,6.0,3.0,2.0,17.0,6.0,115.0,358.0,5.0,228.0,3.0,37.0,7.0,8.0,7.0,,17.0,203.0,95.0,2.0,4.0,1.0,9.0,1.0,13.0,4.0,2.0,5.0,22.0,6.0,351.0,128.0,4.0,,12.0,4.0,124.0,62.0,45.0,45.0,2.0,55.0,661.0,31.0,2.0,1.0,2.0,2.0,1.0,87.0,146.0,,3.0,196.0,440.0,11.0,2.0,2.0,63.0,3.0,15.0,,10.0,2.0,2.0,38.0,30.0,13.0,6.0,2.0,6.0,90.0,3.0,46.0,2.0,34.0,6.0,23.0,,4.0,119.0,3.0,211.0,82.0,19.0,15.0,14.0,9.0,2.0,2.0,28.0,334.0,454.0,9.0,6.0,16.0,3.0,114.0,,76.0,302.0,114.0,2.0,122.0,5.0,,,13.0,149.0,,16.0,3.0,4.0,,2.0,13.0,,9.0,,205.0,5.0,5.0,44.0,47.0,6.0,5.0,3.0,6.0,20.0,,3.0,12.0,2.0,,18.0,2.0,6.0
2016-02-19,6.0,,49.0,2.0,3.0,,5.0,4.0,10.0,,1.0,8.0,7.0,,23.0,,8.0,40.0,2.0,25.0,1071.0,8.0,125.0,7.0,4.0,7.0,54.0,3.0,,8.0,3.0,,36.0,10.0,5.0,2.0,4.0,3.0,137.0,42.0,325.0,2.0,3.0,4.0,2.0,7.0,3.0,2.0,21.0,11.0,45.0,63.0,243.0,12.0,16.0,18.0,2.0,2.0,14.0,6.0,34.0,14.0,2.0,,99.0,2.0,319.0,69.0,,2.0,1.0,21.0,,2.0,9.0,6.0,4.0,52.0,2.0,6.0,201.0,16.0,,230.0,607.0,549.0,4.0,,7.0,3.0,24.0,344.0,2.0,2.0,11.0,,10.0,2.0,7.0,29.0,,2.0,2.0,10.0,7.0,2.0,321.0,6.0,6.0,12.0,20.0,5.0,5.0,5.0,259.0,13.0,13.0,5.0,12.0,3.0,,27.0,5.0,,8.0,7.0,9.0,9.0,,8.0,25.0,13.0,21.0,,3.0,3.0,1.0,1.0,5.0,3.0,5.0,133.0,2.0,156.0,20.0,9.0,12.0,,2.0,80.0,2.0,410.0,23.0,7.0,,6.0,2.0,77.0,2.0,6.0,12.0,3.0,17.0,13.0,16.0,54.0,274.0,2.0,3.0,12.0,34.0,6.0,9.0,2.0,413.0,3.0,570.0,14.0,4.0,3.0,17.0,10.0,304.0,26.0,35.0,22.0,10.0,6.0,3.0,2.0,17.0,6.0,113.0,362.0,5.0,224.0,3.0,36.0,6.0,8.0,7.0,,18.0,201.0,95.0,2.0,4.0,1.0,9.0,1.0,13.0,5.0,2.0,5.0,24.0,6.0,347.0,127.0,4.0,,12.0,4.0,125.0,64.0,46.0,47.0,2.0,55.0,653.0,31.0,2.0,1.0,2.0,2.0,1.0,87.0,148.0,,3.0,196.0,440.0,11.0,2.0,2.0,64.0,3.0,15.0,1.0,10.0,2.0,2.0,39.0,30.0,14.0,6.0,2.0,6.0,90.0,3.0,46.0,2.0,34.0,6.0,22.0,,4.0,117.0,3.0,210.0,80.0,19.0,15.0,14.0,9.0,3.0,2.0,28.0,333.0,456.0,9.0,6.0,16.0,3.0,115.0,,77.0,304.0,113.0,2.0,121.0,5.0,,,13.0,149.0,,16.0,3.0,4.0,,2.0,13.0,,9.0,,203.0,5.0,5.0,43.0,47.0,6.0,4.0,3.0,6.0,20.0,,3.0,12.0,2.0,,18.0,2.0,6.0
2016-02-20,2.0,,35.0,2.0,2.0,,4.0,4.0,10.0,,1.0,6.0,5.0,,23.0,,5.0,37.0,1.0,28.0,782.0,6.0,90.0,5.0,3.0,4.0,42.0,2.0,,4.0,2.0,,21.0,7.0,4.0,2.0,2.0,2.0,93.0,35.0,227.0,2.0,2.0,3.0,1.0,5.0,3.0,1.0,15.0,13.0,45.0,41.0,211.0,11.0,8.0,17.0,1.0,2.0,7.0,4.0,24.0,9.0,2.0,,68.0,1.0,252.0,43.0,,2.0,1.0,15.0,,3.0,7.0,4.0,2.0,23.0,2.0,5.0,139.0,14.0,,156.0,460.0,455.0,3.0,,5.0,3.0,15.0,240.0,1.0,1.0,9.0,,14.0,1.0,5.0,21.0,,1.0,1.0,8.0,5.0,2.0,222.0,7.0,5.0,9.0,15.0,4.0,6.0,5.0,273.0,10.0,9.0,5.0,6.0,2.0,,22.0,4.0,,5.0,6.0,7.0,6.0,,5.0,22.0,9.0,16.0,,2.0,2.0,4.0,1.0,9.0,2.0,4.0,125.0,1.0,110.0,15.0,7.0,7.0,,1.0,62.0,1.0,301.0,17.0,5.0,,5.0,2.0,59.0,1.0,5.0,13.0,2.0,15.0,20.0,9.0,42.0,243.0,2.0,1.0,11.0,36.0,6.0,7.0,1.0,362.0,3.0,451.0,11.0,4.0,2.0,9.0,6.0,184.0,24.0,36.0,15.0,6.0,4.0,2.0,2.0,12.0,4.0,84.0,374.0,3.0,178.0,2.0,24.0,7.0,6.0,5.0,,19.0,198.0,64.0,1.0,2.0,,5.0,2.0,8.0,6.0,1.0,4.0,17.0,4.0,240.0,104.0,9.0,,10.0,2.0,90.0,67.0,32.0,37.0,2.0,41.0,502.0,18.0,2.0,,2.0,1.0,1.0,79.0,116.0,,2.0,160.0,390.0,8.0,1.0,1.0,49.0,2.0,13.0,,7.0,2.0,2.0,37.0,27.0,14.0,4.0,2.0,5.0,65.0,2.0,25.0,1.0,29.0,4.0,17.0,1.0,3.0,130.0,2.0,156.0,58.0,17.0,13.0,11.0,10.0,3.0,2.0,17.0,278.0,351.0,7.0,5.0,11.0,3.0,70.0,,91.0,241.0,72.0,2.0,89.0,4.0,,,12.0,106.0,,21.0,5.0,6.0,,2.0,11.0,,7.0,,193.0,4.0,5.0,26.0,46.0,4.0,2.0,2.0,5.0,12.0,,2.0,9.0,2.0,,8.0,2.0,4.0
2016-02-21,5.0,,45.0,2.0,2.0,,5.0,4.0,10.0,1.0,2.0,7.0,6.0,,23.0,,6.0,38.0,1.0,26.0,994.0,8.0,107.0,6.0,3.0,7.0,46.0,2.0,,7.0,3.0,,34.0,10.0,6.0,2.0,4.0,2.0,114.0,41.0,273.0,2.0,3.0,4.0,1.0,7.0,2.0,2.0,19.0,11.0,39.0,53.0,209.0,15.0,14.0,16.0,1.0,2.0,11.0,6.0,28.0,13.0,2.0,,83.0,2.0,284.0,58.0,,2.0,1.0,16.0,,2.0,7.0,7.0,4.0,42.0,2.0,7.0,177.0,15.0,,203.0,571.0,529.0,4.0,,8.0,4.0,20.0,311.0,1.0,2.0,9.0,,13.0,1.0,7.0,27.0,,2.0,1.0,11.0,7.0,2.0,288.0,6.0,6.0,10.0,20.0,4.0,5.0,5.0,258.0,12.0,13.0,5.0,12.0,3.0,,26.0,4.0,,7.0,6.0,9.0,8.0,,8.0,24.0,13.0,18.0,,4.0,3.0,3.0,1.0,9.0,2.0,4.0,126.0,2.0,133.0,18.0,7.0,9.0,,1.0,76.0,1.0,387.0,21.0,7.0,,4.0,1.0,73.0,1.0,6.0,11.0,3.0,14.0,20.0,14.0,48.0,275.0,2.0,2.0,11.0,34.0,6.0,9.0,1.0,398.0,3.0,532.0,13.0,4.0,2.0,15.0,10.0,249.0,26.0,32.0,19.0,9.0,5.0,3.0,2.0,14.0,4.0,107.0,355.0,4.0,194.0,2.0,33.0,6.0,8.0,6.0,,15.0,204.0,85.0,2.0,4.0,2.0,9.0,1.0,11.0,5.0,2.0,5.0,20.0,6.0,323.0,121.0,8.0,,12.0,4.0,107.0,64.0,38.0,39.0,2.0,49.0,616.0,29.0,2.0,1.0,2.0,2.0,1.0,83.0,137.0,,3.0,180.0,416.0,10.0,1.0,2.0,58.0,3.0,14.0,,9.0,2.0,2.0,41.0,29.0,13.0,5.0,2.0,6.0,82.0,3.0,43.0,2.0,31.0,5.0,21.0,,2.0,118.0,3.0,191.0,76.0,16.0,15.0,13.0,9.0,2.0,2.0,27.0,319.0,431.0,8.0,6.0,16.0,3.0,96.0,,86.0,296.0,97.0,2.0,102.0,5.0,,,15.0,129.0,,17.0,3.0,4.0,,2.0,12.0,,9.0,,198.0,4.0,5.0,36.0,44.0,6.0,3.0,3.0,6.0,18.0,,3.0,12.0,2.0,,9.0,2.0,6.0
2016-02-22,6.0,,49.0,2.0,3.0,,5.0,4.0,10.0,,1.0,8.0,5.0,,23.0,,8.0,40.0,2.0,25.0,1059.0,9.0,124.0,6.0,4.0,7.0,55.0,3.0,,8.0,3.0,,36.0,10.0,5.0,2.0,2.0,3.0,136.0,42.0,325.0,2.0,3.0,4.0,2.0,7.0,3.0,2.0,21.0,12.0,45.0,63.0,243.0,12.0,16.0,18.0,2.0,2.0,13.0,6.0,34.0,14.0,2.0,,97.0,1.0,319.0,65.0,,2.0,1.0,21.0,,2.0,9.0,7.0,4.0,53.0,2.0,10.0,201.0,17.0,,231.0,608.0,552.0,4.0,,8.0,3.0,24.0,346.0,2.0,2.0,11.0,,10.0,2.0,7.0,30.0,,2.0,2.0,10.0,7.0,2.0,332.0,6.0,6.0,12.0,20.0,5.0,5.0,5.0,261.0,12.0,13.0,5.0,12.0,3.0,,30.0,4.0,,8.0,5.0,9.0,9.0,,8.0,25.0,13.0,21.0,,4.0,3.0,1.0,1.0,5.0,3.0,4.0,122.0,2.0,156.0,20.0,9.0,12.0,,2.0,79.0,2.0,417.0,24.0,7.0,,5.0,2.0,77.0,2.0,7.0,12.0,3.0,17.0,13.0,16.0,53.0,278.0,2.0,3.0,12.0,31.0,6.0,10.0,2.0,403.0,3.0,562.0,14.0,4.0,3.0,16.0,10.0,304.0,26.0,30.0,22.0,9.0,6.0,3.0,2.0,18.0,6.0,115.0,356.0,5.0,228.0,3.0,36.0,8.0,8.0,6.0,,19.0,202.0,94.0,2.0,4.0,1.0,9.0,1.0,13.0,6.0,2.0,5.0,23.0,6.0,347.0,128.0,3.0,,12.0,4.0,121.0,61.0,47.0,47.0,2.0,55.0,659.0,31.0,2.0,1.0,2.0,2.0,1.0,86.0,146.0,,3.0,195.0,439.0,11.0,2.0,2.0,63.0,3.0,15.0,1.0,9.0,2.0,2.0,37.0,30.0,13.0,6.0,2.0,6.0,89.0,3.0,46.0,2.0,34.0,6.0,23.0,,4.0,119.0,3.0,209.0,80.0,19.0,15.0,14.0,9.0,3.0,2.0,29.0,331.0,454.0,9.0,6.0,16.0,3.0,115.0,,76.0,303.0,111.0,2.0,122.0,5.0,,,13.0,150.0,,15.0,3.0,4.0,,2.0,13.0,,9.0,,206.0,5.0,5.0,44.0,47.0,6.0,3.0,3.0,6.0,20.0,,3.0,12.0,2.0,,18.0,2.0,6.0
2016-02-23,5.0,,48.0,2.0,3.0,,5.0,4.0,10.0,,1.0,7.0,6.0,,22.0,,8.0,37.0,2.0,21.0,1054.0,9.0,122.0,7.0,4.0,7.0,52.0,3.0,,7.0,3.0,,35.0,10.0,5.0,2.0,3.0,3.0,134.0,42.0,329.0,2.0,3.0,4.0,2.0,6.0,3.0,2.0,20.0,12.0,48.0,62.0,241.0,12.0,16.0,17.0,2.0,2.0,14.0,6.0,34.0,14.0,2.0,,92.0,2.0,315.0,65.0,,2.0,1.0,19.0,,2.0,9.0,7.0,4.0,52.0,2.0,6.0,201.0,16.0,,227.0,578.0,543.0,4.0,,7.0,3.0,24.0,341.0,1.0,2.0,11.0,,10.0,2.0,6.0,29.0,,2.0,2.0,10.0,7.0,2.0,325.0,6.0,5.0,11.0,18.0,5.0,5.0,5.0,250.0,13.0,12.0,5.0,12.0,3.0,,30.0,4.0,,8.0,6.0,8.0,10.0,,7.0,24.0,14.0,21.0,,4.0,3.0,1.0,1.0,6.0,3.0,5.0,119.0,1.0,156.0,19.0,8.0,11.0,,2.0,79.0,1.0,362.0,23.0,7.0,,6.0,2.0,77.0,2.0,7.0,12.0,3.0,17.0,12.0,15.0,53.0,259.0,2.0,2.0,12.0,30.0,6.0,10.0,2.0,390.0,3.0,537.0,14.0,3.0,2.0,17.0,8.0,298.0,22.0,29.0,21.0,10.0,6.0,3.0,2.0,17.0,6.0,113.0,346.0,5.0,229.0,3.0,38.0,6.0,8.0,7.0,,17.0,193.0,96.0,2.0,4.0,1.0,9.0,1.0,12.0,4.0,2.0,5.0,21.0,6.0,344.0,125.0,1.0,,12.0,4.0,123.0,61.0,48.0,44.0,2.0,54.0,647.0,31.0,2.0,,2.0,2.0,1.0,83.0,141.0,,3.0,195.0,431.0,11.0,2.0,2.0,64.0,3.0,15.0,,9.0,2.0,2.0,34.0,30.0,15.0,6.0,2.0,6.0,90.0,3.0,47.0,2.0,34.0,6.0,22.0,,4.0,115.0,3.0,200.0,81.0,19.0,15.0,14.0,9.0,3.0,2.0,28.0,321.0,433.0,9.0,6.0,17.0,3.0,111.0,,74.0,300.0,108.0,2.0,119.0,5.0,,,13.0,145.0,,15.0,3.0,3.0,,2.0,14.0,,10.0,,200.0,5.0,5.0,40.0,45.0,6.0,3.0,2.0,6.0,18.0,,3.0,12.0,2.0,,17.0,2.0,6.0
